Created as New Dataset,
cm-1,ARB
4000,71.77
3999,71.86
3998,71.9
3997,71.88
3996,71.84
3995,71.82
3994,71.83
3993,71.85
3992,71.85
3991,71.84
3990,71.81
3989,71.8
3988,71.82
3987,71.86
3986,71.89
3985,71.88
3984,71.84
3983,71.79
3982,71.77
3981,71.8
3980,71.85
3979,71.89
3978,71.9
3977,71.9
3976,71.91
3975,71.93
3974,71.95
3973,71.97
3972,72.01
3971,72.04
3970,72.05
3969,72.05
3968,72.04
3967,72.03
3966,72.02
3965,71.99
3964,71.94
3963,71.89
3962,71.86
3961,71.85
3960,71.85
3959,71.88
3958,71.91
3957,71.95
3956,71.97
3955,71.96
3954,71.95
3953,71.95
3952,71.98
3951,72.01
3950,71.98
3949,71.91
3948,71.83
3947,71.81
3946,71.87
3945,71.93
3944,71.94
3943,71.88
3942,71.8
3941,71.77
3940,71.82
3939,71.9
3938,71.96
3937,72
3936,72.01
3935,72.03
3934,72.05
3933,72.05
3932,72.04
3931,72.02
3930,72.01
3929,72.03
3928,72.07
3927,72.12
3926,72.16
3925,72.17
3924,72.12
3923,72.06
3922,72.03
3921,72.05
3920,72.11
3919,72.15
3918,72.17
3917,72.17
3916,72.16
3915,72.16
3914,72.17
3913,72.2
3912,72.23
3911,72.23
3910,72.22
3909,72.2
3908,72.19
3907,72.2
3906,72.24
3905,72.29
3904,72.3
3903,72.28
3902,72.27
3901,72.29
3900,72.34
3899,72.37
3898,72.37
3897,72.36
3896,72.36
3895,72.38
3894,72.4
3893,72.41
3892,72.4
3891,72.34
3890,72.27
3889,72.22
3888,72.21
3887,72.21
3886,72.19
3885,72.17
3884,72.2
3883,72.27
3882,72.34
3881,72.37
3880,72.34
3879,72.32
3878,72.31
3877,72.33
3876,72.31
3875,72.25
3874,72.18
3873,72.16
3872,72.24
3871,72.38
3870,72.44
3869,72.37
3868,72.27
3867,72.25
3866,72.28
3865,72.32
3864,72.34
3863,72.38
3862,72.43
3861,72.46
3860,72.44
3859,72.41
3858,72.38
3857,72.38
3856,72.41
3855,72.46
3854,72.5
3853,72.5
3852,72.49
3851,72.5
3850,72.54
3849,72.55
3848,72.53
3847,72.5
3846,72.47
3845,72.44
3844,72.39
3843,72.34
3842,72.32
3841,72.34
3840,72.38
3839,72.42
3838,72.42
3837,72.41
3836,72.42
3835,72.45
3834,72.48
3833,72.49
3832,72.46
3831,72.42
3830,72.4
3829,72.4
3828,72.39
3827,72.36
3826,72.3
3825,72.26
3824,72.29
3823,72.36
3822,72.42
3821,72.4
3820,72.35
3819,72.37
3818,72.45
3817,72.5
3816,72.45
3815,72.36
3814,72.31
3813,72.33
3812,72.35
3811,72.34
3810,72.34
3809,72.4
3808,72.5
3807,72.57
3806,72.55
3805,72.51
3804,72.51
3803,72.52
3802,72.5
3801,72.46
3800,72.47
3799,72.54
3798,72.59
3797,72.56
3796,72.47
3795,72.42
3794,72.43
3793,72.46
3792,72.46
3791,72.42
3790,72.38
3789,72.36
3788,72.37
3787,72.39
3786,72.39
3785,72.38
3784,72.35
3783,72.34
3782,72.36
3781,72.4
3780,72.42
3779,72.39
3778,72.35
3777,72.33
3776,72.36
3775,72.41
3774,72.45
3773,72.46
3772,72.46
3771,72.46
3770,72.46
3769,72.48
3768,72.53
3767,72.6
3766,72.62
3765,72.54
3764,72.43
3763,72.37
3762,72.4
3761,72.46
3760,72.5
3759,72.53
3758,72.54
3757,72.52
3756,72.47
3755,72.41
3754,72.38
3753,72.37
3752,72.37
3751,72.39
3750,72.45
3749,72.5
3748,72.51
3747,72.54
3746,72.6
3745,72.6
3744,72.54
3743,72.52
3742,72.59
3741,72.69
3740,72.73
3739,72.72
3738,72.71
3737,72.71
3736,72.63
3735,72.49
3734,72.38
3733,72.38
3732,72.43
3731,72.49
3730,72.57
3729,72.67
3728,72.72
3727,72.69
3726,72.58
3725,72.5
3724,72.46
3723,72.45
3722,72.43
3721,72.39
3720,72.35
3719,72.32
3718,72.3
3717,72.28
3716,72.25
3715,72.2
3714,72.12
3713,72.02
3712,71.96
3711,71.96
3710,72.02
3709,72.08
3708,72.11
3707,72.09
3706,72.05
3705,72
3704,71.93
3703,71.88
3702,71.86
3701,71.86
3700,71.86
3699,71.85
3698,71.82
3697,71.76
3696,71.67
3695,71.6
3694,71.56
3693,71.54
3692,71.5
3691,71.43
3690,71.36
3689,71.29
3688,71.25
3687,71.24
3686,71.25
3685,71.24
3684,71.19
3683,71.09
3682,71
3681,70.96
3680,70.93
3679,70.89
3678,70.86
3677,70.84
3676,70.77
3675,70.66
3674,70.57
3673,70.57
3672,70.61
3671,70.59
3670,70.5
3669,70.42
3668,70.39
3667,70.37
3666,70.32
3665,70.25
3664,70.2
3663,70.18
3662,70.14
3661,70.09
3660,70
3659,69.92
3658,69.84
3657,69.77
3656,69.7
3655,69.66
3654,69.65
3653,69.66
3652,69.67
3651,69.65
3650,69.66
3649,69.71
3648,69.75
3647,69.71
3646,69.64
3645,69.59
3644,69.58
3643,69.56
3642,69.51
3641,69.45
3640,69.42
3639,69.41
3638,69.4
3637,69.38
3636,69.38
3635,69.4
3634,69.41
3633,69.43
3632,69.47
3631,69.53
3630,69.56
3629,69.5
3628,69.44
3627,69.46
3626,69.53
3625,69.57
3624,69.56
3623,69.51
3622,69.48
3621,69.49
3620,69.51
3619,69.49
3618,69.45
3617,69.43
3616,69.45
3615,69.49
3614,69.49
3613,69.42
3612,69.37
3611,69.39
3610,69.5
3609,69.61
3608,69.67
3607,69.67
3606,69.66
3605,69.67
3604,69.72
3603,69.79
3602,69.86
3601,69.89
3600,69.9
3599,69.89
3598,69.89
3597,69.88
3596,69.87
3595,69.88
3594,69.91
3593,69.93
3592,69.95
3591,69.96
3590,69.97
3589,69.98
3588,69.99
3587,69.99
3586,69.98
3585,69.96
3584,69.93
3583,69.91
3582,69.88
3581,69.85
3580,69.81
3579,69.8
3578,69.83
3577,69.86
3576,69.87
3575,69.83
3574,69.76
3573,69.7
3572,69.67
3571,69.7
3570,69.8
3569,69.91
3568,69.98
3567,69.96
3566,69.89
3565,69.81
3564,69.75
3563,69.71
3562,69.68
3561,69.64
3560,69.59
3559,69.53
3558,69.48
3557,69.45
3556,69.45
3555,69.49
3554,69.56
3553,69.6
3552,69.61
3551,69.58
3550,69.57
3549,69.57
3548,69.57
3547,69.56
3546,69.56
3545,69.58
3544,69.59
3543,69.58
3542,69.54
3541,69.52
3540,69.54
3539,69.59
3538,69.66
3537,69.71
3536,69.71
3535,69.7
3534,69.72
3533,69.77
3532,69.86
3531,69.95
3530,70.01
3529,70.02
3528,70
3527,69.97
3526,69.97
3525,69.99
3524,69.98
3523,69.95
3522,69.92
3521,69.92
3520,69.97
3519,70.03
3518,70.06
3517,70.06
3516,70.05
3515,70.05
3514,70.08
3513,70.13
3512,70.17
3511,70.19
3510,70.17
3509,70.13
3508,70.1
3507,70.1
3506,70.13
3505,70.18
3504,70.2
3503,70.22
3502,70.23
3501,70.25
3500,70.26
3499,70.23
3498,70.2
3497,70.17
3496,70.18
3495,70.18
3494,70.17
3493,70.14
3492,70.1
3491,70.1
3490,70.14
3489,70.21
3488,70.27
3487,70.26
3486,70.18
3485,70.09
3484,70.04
3483,70.04
3482,70.05
3481,70.04
3480,70.01
3479,70
3478,70.02
3477,70.04
3476,70.06
3475,70.05
3474,70
3473,69.92
3472,69.83
3471,69.78
3470,69.76
3469,69.78
3468,69.79
3467,69.79
3466,69.74
3465,69.65
3464,69.54
3463,69.42
3462,69.32
3461,69.27
3460,69.26
3459,69.31
3458,69.39
3457,69.43
3456,69.41
3455,69.35
3454,69.29
3453,69.26
3452,69.26
3451,69.26
3450,69.27
3449,69.27
3448,69.27
3447,69.26
3446,69.22
3445,69.17
3444,69.1
3443,69.03
3442,68.99
3441,68.97
3440,68.99
3439,69.04
3438,69.1
3437,69.16
3436,69.18
3435,69.16
3434,69.13
3433,69.1
3432,69.09
3431,69.1
3430,69.12
3429,69.14
3428,69.15
3427,69.14
3426,69.14
3425,69.18
3424,69.25
3423,69.33
3422,69.4
3421,69.46
3420,69.52
3419,69.59
3418,69.64
3417,69.68
3416,69.71
3415,69.75
3414,69.79
3413,69.83
3412,69.87
3411,69.92
3410,69.97
3409,69.98
3408,69.98
3407,70
3406,70.07
3405,70.17
3404,70.25
3403,70.29
3402,70.3
3401,70.29
3400,70.3
3399,70.32
3398,70.34
3397,70.34
3396,70.34
3395,70.35
3394,70.36
3393,70.39
3392,70.42
3391,70.45
3390,70.47
3389,70.47
3388,70.48
3387,70.52
3386,70.59
3385,70.67
3384,70.7
3383,70.66
3382,70.59
3381,70.52
3380,70.47
3379,70.45
3378,70.46
3377,70.48
3376,70.49
3375,70.49
3374,70.48
3373,70.49
3372,70.53
3371,70.58
3370,70.61
3369,70.6
3368,70.55
3367,70.5
3366,70.46
3365,70.45
3364,70.44
3363,70.44
3362,70.44
3361,70.44
3360,70.45
3359,70.47
3358,70.52
3357,70.57
3356,70.6
3355,70.61
3354,70.61
3353,70.59
3352,70.57
3351,70.54
3350,70.51
3349,70.48
3348,70.48
3347,70.5
3346,70.52
3345,70.54
3344,70.54
3343,70.55
3342,70.58
3341,70.61
3340,70.62
3339,70.61
3338,70.58
3337,70.54
3336,70.5
3335,70.49
3334,70.5
3333,70.53
3332,70.56
3331,70.6
3330,70.64
3329,70.67
3328,70.68
3327,70.66
3326,70.63
3325,70.59
3324,70.57
3323,70.56
3322,70.58
3321,70.59
3320,70.59
3319,70.59
3318,70.6
3317,70.62
3316,70.61
3315,70.58
3314,70.54
3313,70.53
3312,70.54
3311,70.57
3310,70.6
3309,70.62
3308,70.63
3307,70.63
3306,70.62
3305,70.61
3304,70.59
3303,70.56
3302,70.55
3301,70.57
3300,70.6
3299,70.61
3298,70.6
3297,70.59
3296,70.6
3295,70.61
3294,70.61
3293,70.6
3292,70.59
3291,70.59
3290,70.6
3289,70.6
3288,70.6
3287,70.61
3286,70.62
3285,70.62
3284,70.63
3283,70.64
3282,70.65
3281,70.66
3280,70.66
3279,70.65
3278,70.66
3277,70.68
3276,70.7
3275,70.71
3274,70.71
3273,70.69
3272,70.68
3271,70.67
3270,70.68
3269,70.67
3268,70.66
3267,70.65
3266,70.66
3265,70.67
3264,70.66
3263,70.65
3262,70.63
3261,70.62
3260,70.61
3259,70.59
3258,70.59
3257,70.62
3256,70.66
3255,70.68
3254,70.65
3253,70.61
3252,70.6
3251,70.63
3250,70.67
3249,70.68
3248,70.66
3247,70.6
3246,70.56
3245,70.53
3244,70.52
3243,70.51
3242,70.49
3241,70.47
3240,70.47
3239,70.5
3238,70.53
3237,70.55
3236,70.54
3235,70.53
3234,70.53
3233,70.55
3232,70.56
3231,70.56
3230,70.54
3229,70.52
3228,70.53
3227,70.56
3226,70.57
3225,70.56
3224,70.53
3223,70.52
3222,70.53
3221,70.54
3220,70.54
3219,70.51
3218,70.49
3217,70.48
3216,70.5
3215,70.52
3214,70.54
3213,70.55
3212,70.54
3211,70.52
3210,70.52
3209,70.54
3208,70.57
3207,70.58
3206,70.55
3205,70.48
3204,70.41
3203,70.37
3202,70.35
3201,70.35
3200,70.35
3199,70.35
3198,70.33
3197,70.29
3196,70.25
3195,70.21
3194,70.2
3193,70.2
3192,70.23
3191,70.25
3190,70.29
3189,70.32
3188,70.35
3187,70.36
3186,70.34
3185,70.3
3184,70.25
3183,70.22
3182,70.21
3181,70.22
3180,70.22
3179,70.21
3178,70.19
3177,70.18
3176,70.19
3175,70.21
3174,70.22
3173,70.19
3172,70.15
3171,70.1
3170,70.08
3169,70.08
3168,70.08
3167,70.07
3166,70.05
3165,70.03
3164,70.04
3163,70.06
3162,70.09
3161,70.12
3160,70.14
3159,70.16
3158,70.18
3157,70.18
3156,70.14
3155,70.09
3154,70.06
3153,70.06
3152,70.08
3151,70.1
3150,70.08
3149,70.05
3148,70.01
3147,70
3146,70.02
3145,70.04
3144,70.03
3143,70
3142,69.98
3141,69.98
3140,69.99
3139,70.01
3138,70.03
3137,70.05
3136,70.05
3135,70.03
3134,69.99
3133,69.95
3132,69.93
3131,69.95
3130,69.98
3129,70.01
3128,70.01
3127,69.98
3126,69.95
3125,69.93
3124,69.91
3123,69.87
3122,69.83
3121,69.8
3120,69.8
3119,69.79
3118,69.76
3117,69.72
3116,69.72
3115,69.77
3114,69.82
3113,69.84
3112,69.82
3111,69.79
3110,69.76
3109,69.76
3108,69.77
3107,69.79
3106,69.8
3105,69.79
3104,69.76
3103,69.72
3102,69.69
3101,69.66
3100,69.65
3099,69.66
3098,69.68
3097,69.69
3096,69.69
3095,69.67
3094,69.64
3093,69.61
3092,69.58
3091,69.57
3090,69.56
3089,69.55
3088,69.53
3087,69.5
3086,69.48
3085,69.49
3084,69.51
3083,69.53
3082,69.52
3081,69.49
3080,69.47
3079,69.46
3078,69.47
3077,69.48
3076,69.47
3075,69.46
3074,69.44
3073,69.45
3072,69.47
3071,69.5
3070,69.5
3069,69.46
3068,69.43
3067,69.41
3066,69.42
3065,69.43
3064,69.43
3063,69.43
3062,69.43
3061,69.41
3060,69.37
3059,69.32
3058,69.29
3057,69.26
3056,69.26
3055,69.28
3054,69.32
3053,69.35
3052,69.37
3051,69.36
3050,69.33
3049,69.29
3048,69.24
3047,69.21
3046,69.2
3045,69.21
3044,69.21
3043,69.2
3042,69.18
3041,69.15
3040,69.12
3039,69.11
3038,69.1
3037,69.08
3036,69.08
3035,69.12
3034,69.2
3033,69.26
3032,69.27
3031,69.22
3030,69.17
3029,69.14
3028,69.12
3027,69.11
3026,69.09
3025,69.07
3024,69.06
3023,69.08
3022,69.1
3021,69.13
3020,69.15
3019,69.16
3018,69.15
3017,69.13
3016,69.08
3015,69.04
3014,69.02
3013,69.03
3012,69.04
3011,69.06
3010,69.08
3009,69.11
3008,69.12
3007,69.13
3006,69.12
3005,69.11
3004,69.09
3003,69.07
3002,69.05
3001,69.06
3000,69.06
2999,69.07
2998,69.06
2997,69.06
2996,69.07
2995,69.06
2994,69.04
2993,69.04
2992,69.08
2991,69.14
2990,69.2
2989,69.23
2988,69.22
2987,69.19
2986,69.16
2985,69.17
2984,69.19
2983,69.2
2982,69.19
2981,69.16
2980,69.14
2979,69.14
2978,69.16
2977,69.18
2976,69.19
2975,69.21
2974,69.23
2973,69.23
2972,69.22
2971,69.2
2970,69.18
2969,69.17
2968,69.2
2967,69.24
2966,69.28
2965,69.3
2964,69.3
2963,69.28
2962,69.26
2961,69.24
2960,69.24
2959,69.25
2958,69.26
2957,69.23
2956,69.18
2955,69.15
2954,69.14
2953,69.16
2952,69.19
2951,69.21
2950,69.22
2949,69.23
2948,69.24
2947,69.23
2946,69.23
2945,69.23
2944,69.22
2943,69.2
2942,69.19
2941,69.19
2940,69.21
2939,69.26
2938,69.31
2937,69.34
2936,69.36
2935,69.35
2934,69.35
2933,69.36
2932,69.39
2931,69.45
2930,69.5
2929,69.54
2928,69.55
2927,69.53
2926,69.49
2925,69.46
2924,69.47
2923,69.5
2922,69.52
2921,69.51
2920,69.48
2919,69.49
2918,69.54
2917,69.6
2916,69.63
2915,69.62
2914,69.6
2913,69.57
2912,69.53
2911,69.46
2910,69.4
2909,69.37
2908,69.37
2907,69.38
2906,69.39
2905,69.41
2904,69.44
2903,69.48
2902,69.5
2901,69.5
2900,69.5
2899,69.51
2898,69.52
2897,69.5
2896,69.46
2895,69.42
2894,69.41
2893,69.43
2892,69.46
2891,69.47
2890,69.48
2889,69.49
2888,69.48
2887,69.47
2886,69.47
2885,69.49
2884,69.52
2883,69.55
2882,69.56
2881,69.56
2880,69.57
2879,69.57
2878,69.56
2877,69.53
2876,69.5
2875,69.49
2874,69.51
2873,69.54
2872,69.56
2871,69.59
2870,69.63
2869,69.66
2868,69.67
2867,69.65
2866,69.64
2865,69.64
2864,69.62
2863,69.6
2862,69.57
2861,69.56
2860,69.58
2859,69.63
2858,69.67
2857,69.68
2856,69.66
2855,69.66
2854,69.69
2853,69.73
2852,69.76
2851,69.78
2850,69.77
2849,69.75
2848,69.73
2847,69.73
2846,69.73
2845,69.72
2844,69.7
2843,69.68
2842,69.68
2841,69.7
2840,69.71
2839,69.71
2838,69.7
2837,69.69
2836,69.67
2835,69.67
2834,69.68
2833,69.71
2832,69.71
2831,69.7
2830,69.69
2829,69.69
2828,69.71
2827,69.75
2826,69.79
2825,69.83
2824,69.86
2823,69.88
2822,69.9
2821,69.92
2820,69.96
2819,69.99
2818,70
2817,70.01
2816,70.01
2815,70.01
2814,70.05
2813,70.12
2812,70.19
2811,70.24
2810,70.26
2809,70.26
2808,70.26
2807,70.27
2806,70.27
2805,70.28
2804,70.29
2803,70.32
2802,70.36
2801,70.4
2800,70.41
2799,70.41
2798,70.41
2797,70.44
2796,70.51
2795,70.58
2794,70.61
2793,70.61
2792,70.59
2791,70.57
2790,70.56
2789,70.56
2788,70.55
2787,70.53
2786,70.5
2785,70.49
2784,70.52
2783,70.56
2782,70.6
2781,70.62
2780,70.61
2779,70.62
2778,70.67
2777,70.73
2776,70.78
2775,70.79
2774,70.76
2773,70.71
2772,70.67
2771,70.64
2770,70.64
2769,70.66
2768,70.68
2767,70.71
2766,70.73
2765,70.75
2764,70.76
2763,70.76
2762,70.76
2761,70.78
2760,70.81
2759,70.84
2758,70.86
2757,70.87
2756,70.87
2755,70.86
2754,70.85
2753,70.86
2752,70.86
2751,70.88
2750,70.89
2749,70.9
2748,70.92
2747,70.92
2746,70.94
2745,70.96
2744,70.99
2743,71.02
2742,71.03
2741,71.03
2740,71.01
2739,71.02
2738,71.05
2737,71.1
2736,71.14
2735,71.16
2734,71.16
2733,71.16
2732,71.18
2731,71.22
2730,71.26
2729,71.26
2728,71.24
2727,71.23
2726,71.25
2725,71.29
2724,71.32
2723,71.33
2722,71.34
2721,71.36
2720,71.38
2719,71.37
2718,71.36
2717,71.35
2716,71.34
2715,71.35
2714,71.37
2713,71.39
2712,71.42
2711,71.44
2710,71.44
2709,71.44
2708,71.44
2707,71.45
2706,71.47
2705,71.49
2704,71.5
2703,71.49
2702,71.48
2701,71.46
2700,71.45
2699,71.44
2698,71.43
2697,71.46
2696,71.5
2695,71.56
2694,71.59
2693,71.61
2692,71.62
2691,71.64
2690,71.65
2689,71.62
2688,71.58
2687,71.53
2686,71.52
2685,71.53
2684,71.53
2683,71.52
2682,71.52
2681,71.53
2680,71.57
2679,71.6
2678,71.62
2677,71.61
2676,71.59
2675,71.57
2674,71.54
2673,71.52
2672,71.52
2671,71.53
2670,71.54
2669,71.53
2668,71.5
2667,71.48
2666,71.46
2665,71.46
2664,71.47
2663,71.48
2662,71.49
2661,71.48
2660,71.44
2659,71.41
2658,71.42
2657,71.46
2656,71.5
2655,71.5
2654,71.46
2653,71.4
2652,71.36
2651,71.36
2650,71.38
2649,71.4
2648,71.38
2647,71.34
2646,71.3
2645,71.3
2644,71.34
2643,71.4
2642,71.44
2641,71.47
2640,71.47
2639,71.44
2638,71.41
2637,71.38
2636,71.38
2635,71.39
2634,71.42
2633,71.45
2632,71.47
2631,71.47
2630,71.46
2629,71.46
2628,71.47
2627,71.49
2626,71.49
2625,71.47
2624,71.47
2623,71.48
2622,71.51
2621,71.54
2620,71.53
2619,71.5
2618,71.47
2617,71.47
2616,71.49
2615,71.52
2614,71.54
2613,71.54
2612,71.51
2611,71.49
2610,71.46
2609,71.43
2608,71.39
2607,71.36
2606,71.34
2605,71.35
2604,71.35
2603,71.34
2602,71.33
2601,71.33
2600,71.32
2599,71.3
2598,71.29
2597,71.29
2596,71.32
2595,71.35
2594,71.37
2593,71.38
2592,71.39
2591,71.39
2590,71.4
2589,71.4
2588,71.4
2587,71.39
2586,71.39
2585,71.4
2584,71.41
2583,71.41
2582,71.41
2581,71.42
2580,71.43
2579,71.43
2578,71.44
2577,71.44
2576,71.45
2575,71.46
2574,71.48
2573,71.5
2572,71.51
2571,71.5
2570,71.48
2569,71.47
2568,71.48
2567,71.5
2566,71.52
2565,71.53
2564,71.53
2563,71.53
2562,71.54
2561,71.57
2560,71.6
2559,71.62
2558,71.61
2557,71.59
2556,71.57
2555,71.56
2554,71.55
2553,71.55
2552,71.56
2551,71.58
2550,71.59
2549,71.59
2548,71.58
2547,71.57
2546,71.57
2545,71.59
2544,71.63
2543,71.67
2542,71.68
2541,71.68
2540,71.67
2539,71.66
2538,71.66
2537,71.67
2536,71.69
2535,71.69
2534,71.67
2533,71.64
2532,71.64
2531,71.68
2530,71.75
2529,71.82
2528,71.86
2527,71.86
2526,71.83
2525,71.8
2524,71.81
2523,71.85
2522,71.9
2521,71.96
2520,71.99
2519,72
2518,71.99
2517,71.96
2516,71.95
2515,71.97
2514,71.99
2513,72.01
2512,72.01
2511,71.98
2510,71.95
2509,71.93
2508,71.95
2507,71.98
2506,72
2505,72
2504,72
2503,71.99
2502,71.98
2501,71.98
2500,71.97
2499,71.98
2498,71.98
2497,71.99
2496,72
2495,72.01
2494,72.02
2493,72.03
2492,72.04
2491,72.05
2490,72.05
2489,72.05
2488,72.06
2487,72.09
2486,72.11
2485,72.1
2484,72.09
2483,72.08
2482,72.08
2481,72.08
2480,72.06
2479,72.05
2478,72.04
2477,72.05
2476,72.05
2475,72.03
2474,71.99
2473,71.94
2472,71.9
2471,71.89
2470,71.92
2469,71.96
2468,72.01
2467,72.03
2466,72.04
2465,72.04
2464,72.04
2463,72.05
2462,72.06
2461,72.05
2460,71.99
2459,71.93
2458,71.9
2457,71.91
2456,71.94
2455,71.98
2454,72.01
2453,72.02
2452,72
2451,71.98
2450,71.95
2449,71.92
2448,71.89
2447,71.85
2446,71.83
2445,71.83
2444,71.85
2443,71.85
2442,71.83
2441,71.8
2440,71.77
2439,71.77
2438,71.77
2437,71.77
2436,71.76
2435,71.75
2434,71.73
2433,71.7
2432,71.68
2431,71.68
2430,71.68
2429,71.68
2428,71.67
2427,71.67
2426,71.67
2425,71.66
2424,71.63
2423,71.59
2422,71.57
2421,71.56
2420,71.55
2419,71.56
2418,71.59
2417,71.62
2416,71.64
2415,71.63
2414,71.6
2413,71.57
2412,71.55
2411,71.57
2410,71.61
2409,71.66
2408,71.69
2407,71.69
2406,71.68
2405,71.68
2404,71.7
2403,71.72
2402,71.71
2401,71.7
2400,71.7
2399,71.71
2398,71.72
2397,71.71
2396,71.69
2395,71.66
2394,71.64
2393,71.63
2392,71.61
2391,71.61
2390,71.63
2389,71.65
2388,71.66
2387,71.65
2386,71.63
2385,71.62
2384,71.62
2383,71.62
2382,71.64
2381,71.66
2380,71.67
2379,71.68
2378,71.69
2377,71.74
2376,71.8
2375,71.87
2374,71.91
2373,71.95
2372,72
2371,72.04
2370,72.07
2369,72.09
2368,72.12
2367,72.16
2366,72.19
2365,72.22
2364,72.25
2363,72.3
2362,72.38
2361,72.46
2360,72.55
2359,72.62
2358,72.63
2357,72.56
2356,72.47
2355,72.42
2354,72.43
2353,72.48
2352,72.54
2351,72.55
2350,72.47
2349,72.34
2348,72.18
2347,72.07
2346,72.01
2345,72.02
2344,72.11
2343,72.24
2342,72.34
2341,72.35
2340,72.25
2339,72.12
2338,72.03
2337,72
2336,72.02
2335,72.05
2334,72.05
2333,72.05
2332,72.07
2331,72.1
2330,72.11
2329,72.11
2328,72.08
2327,72.04
2326,71.98
2325,71.95
2324,71.97
2323,72.06
2322,72.19
2321,72.27
2320,72.28
2319,72.22
2318,72.13
2317,72.06
2316,72.04
2315,72.04
2314,72.03
2313,72
2312,71.98
2311,71.99
2310,72.02
2309,72.04
2308,72.03
2307,72.02
2306,72.02
2305,72.04
2304,72.04
2303,72.02
2302,71.98
2301,71.94
2300,71.91
2299,71.91
2298,71.92
2297,71.94
2296,71.96
2295,71.97
2294,71.98
2293,72
2292,72
2291,71.99
2290,71.96
2289,71.95
2288,71.93
2287,71.92
2286,71.9
2285,71.9
2284,71.92
2283,71.94
2282,71.97
2281,71.99
2280,72
2279,71.99
2278,71.96
2277,71.92
2276,71.9
2275,71.9
2274,71.91
2273,71.94
2272,71.98
2271,72.04
2270,72.1
2269,72.14
2268,72.14
2267,72.12
2266,72.07
2265,72.05
2264,72.06
2263,72.09
2262,72.13
2261,72.14
2260,72.12
2259,72.11
2258,72.09
2257,72.08
2256,72.08
2255,72.08
2254,72.08
2253,72.11
2252,72.14
2251,72.17
2250,72.18
2249,72.17
2248,72.16
2247,72.17
2246,72.18
2245,72.19
2244,72.17
2243,72.14
2242,72.13
2241,72.12
2240,72.11
2239,72.1
2238,72.09
2237,72.09
2236,72.1
2235,72.11
2234,72.12
2233,72.13
2232,72.14
2231,72.13
2230,72.12
2229,72.1
2228,72.11
2227,72.12
2226,72.12
2225,72.11
2224,72.09
2223,72.07
2222,72.07
2221,72.1
2220,72.15
2219,72.17
2218,72.16
2217,72.13
2216,72.11
2215,72.1
2214,72.09
2213,72.06
2212,72.03
2211,72
2210,72
2209,71.99
2208,72
2207,72
2206,72
2205,71.98
2204,71.95
2203,71.93
2202,71.93
2201,71.93
2200,71.95
2199,71.97
2198,71.98
2197,71.96
2196,71.93
2195,71.9
2194,71.89
2193,71.89
2192,71.9
2191,71.92
2190,71.94
2189,71.95
2188,71.96
2187,71.97
2186,71.99
2185,71.99
2184,71.97
2183,71.95
2182,71.94
2181,71.93
2180,71.93
2179,71.92
2178,71.91
2177,71.9
2176,71.89
2175,71.88
2174,71.87
2173,71.85
2172,71.83
2171,71.82
2170,71.8
2169,71.81
2168,71.81
2167,71.8
2166,71.78
2165,71.77
2164,71.78
2163,71.81
2162,71.83
2161,71.83
2160,71.82
2159,71.79
2158,71.76
2157,71.72
2156,71.71
2155,71.71
2154,71.72
2153,71.72
2152,71.71
2151,71.71
2150,71.7
2149,71.68
2148,71.65
2147,71.64
2146,71.64
2145,71.62
2144,71.59
2143,71.56
2142,71.52
2141,71.5
2140,71.5
2139,71.51
2138,71.54
2137,71.56
2136,71.58
2135,71.6
2134,71.62
2133,71.63
2132,71.61
2131,71.56
2130,71.52
2129,71.5
2128,71.51
2127,71.52
2126,71.53
2125,71.52
2124,71.5
2123,71.5
2122,71.51
2121,71.51
2120,71.52
2119,71.52
2118,71.51
2117,71.48
2116,71.47
2115,71.49
2114,71.54
2113,71.57
2112,71.57
2111,71.55
2110,71.53
2109,71.53
2108,71.53
2107,71.5
2106,71.46
2105,71.44
2104,71.43
2103,71.43
2102,71.43
2101,71.41
2100,71.39
2099,71.38
2098,71.38
2097,71.38
2096,71.38
2095,71.37
2094,71.36
2093,71.34
2092,71.32
2091,71.32
2090,71.33
2089,71.37
2088,71.39
2087,71.38
2086,71.35
2085,71.33
2084,71.34
2083,71.36
2082,71.37
2081,71.38
2080,71.39
2079,71.4
2078,71.41
2077,71.43
2076,71.43
2075,71.41
2074,71.38
2073,71.34
2072,71.33
2071,71.35
2070,71.38
2069,71.4
2068,71.4
2067,71.38
2066,71.35
2065,71.34
2064,71.35
2063,71.36
2062,71.35
2061,71.34
2060,71.33
2059,71.32
2058,71.31
2057,71.3
2056,71.27
2055,71.25
2054,71.26
2053,71.28
2052,71.31
2051,71.34
2050,71.34
2049,71.32
2048,71.29
2047,71.29
2046,71.3
2045,71.32
2044,71.32
2043,71.31
2042,71.31
2041,71.31
2040,71.33
2039,71.35
2038,71.37
2037,71.39
2036,71.41
2035,71.41
2034,71.41
2033,71.41
2032,71.4
2031,71.41
2030,71.44
2029,71.48
2028,71.5
2027,71.48
2026,71.45
2025,71.44
2024,71.47
2023,71.5
2022,71.52
2021,71.53
2020,71.54
2019,71.55
2018,71.55
2017,71.54
2016,71.52
2015,71.5
2014,71.5
2013,71.5
2012,71.5
2011,71.47
2010,71.44
2009,71.42
2008,71.42
2007,71.43
2006,71.43
2005,71.42
2004,71.41
2003,71.39
2002,71.35
2001,71.3
2000,71.26
1999,71.23
1998,71.22
1997,71.22
1996,71.22
1995,71.23
1994,71.24
1993,71.25
1992,71.23
1991,71.2
1990,71.16
1989,71.15
1988,71.15
1987,71.14
1986,71.12
1985,71.11
1984,71.12
1983,71.14
1982,71.17
1981,71.21
1980,71.23
1979,71.24
1978,71.22
1977,71.2
1976,71.18
1975,71.18
1974,71.17
1973,71.16
1972,71.14
1971,71.1
1970,71.07
1969,71.06
1968,71.07
1967,71.09
1966,71.1
1965,71.12
1964,71.14
1963,71.15
1962,71.14
1961,71.1
1960,71.06
1959,71.05
1958,71.08
1957,71.12
1956,71.15
1955,71.15
1954,71.14
1953,71.12
1952,71.12
1951,71.14
1950,71.16
1949,71.18
1948,71.21
1947,71.24
1946,71.25
1945,71.26
1944,71.27
1943,71.27
1942,71.27
1941,71.28
1940,71.3
1939,71.32
1938,71.35
1937,71.39
1936,71.43
1935,71.44
1934,71.44
1933,71.43
1932,71.44
1931,71.45
1930,71.44
1929,71.43
1928,71.43
1927,71.43
1926,71.43
1925,71.44
1924,71.47
1923,71.5
1922,71.52
1921,71.54
1920,71.58
1919,71.63
1918,71.66
1917,71.66
1916,71.64
1915,71.64
1914,71.64
1913,71.65
1912,71.67
1911,71.7
1910,71.7
1909,71.7
1908,71.71
1907,71.71
1906,71.71
1905,71.68
1904,71.67
1903,71.67
1902,71.69
1901,71.7
1900,71.72
1899,71.74
1898,71.74
1897,71.73
1896,71.72
1895,71.73
1894,71.74
1893,71.74
1892,71.76
1891,71.78
1890,71.8
1889,71.81
1888,71.83
1887,71.85
1886,71.86
1885,71.86
1884,71.84
1883,71.8
1882,71.76
1881,71.72
1880,71.71
1879,71.71
1878,71.72
1877,71.73
1876,71.75
1875,71.77
1874,71.77
1873,71.74
1872,71.7
1871,71.69
1870,71.71
1869,71.73
1868,71.75
1867,71.76
1866,71.77
1865,71.76
1864,71.75
1863,71.74
1862,71.71
1861,71.68
1860,71.65
1859,71.63
1858,71.62
1857,71.61
1856,71.62
1855,71.63
1854,71.63
1853,71.61
1852,71.56
1851,71.52
1850,71.49
1849,71.47
1848,71.47
1847,71.47
1846,71.46
1845,71.45
1844,71.45
1843,71.45
1842,71.46
1841,71.47
1840,71.47
1839,71.45
1838,71.41
1837,71.38
1836,71.35
1835,71.34
1834,71.32
1833,71.3
1832,71.29
1831,71.29
1830,71.3
1829,71.31
1828,71.31
1827,71.31
1826,71.28
1825,71.25
1824,71.22
1823,71.21
1822,71.21
1821,71.21
1820,71.21
1819,71.22
1818,71.22
1817,71.2
1816,71.17
1815,71.15
1814,71.16
1813,71.19
1812,71.2
1811,71.2
1810,71.17
1809,71.13
1808,71.11
1807,71.12
1806,71.12
1805,71.09
1804,71.04
1803,71.01
1802,71.01
1801,71.02
1800,71.01
1799,71.01
1798,71.01
1797,71.01
1796,71.02
1795,71.03
1794,71.04
1793,71.03
1792,71.01
1791,71
1790,71.01
1789,71.01
1788,71
1787,70.98
1786,70.95
1785,70.9
1784,70.88
1783,70.89
1782,70.92
1781,70.94
1780,70.93
1779,70.9
1778,70.89
1777,70.89
1776,70.89
1775,70.9
1774,70.94
1773,71.01
1772,71.05
1771,71.03
1770,70.96
1769,70.86
1768,70.78
1767,70.75
1766,70.76
1765,70.79
1764,70.82
1763,70.84
1762,70.86
1761,70.86
1760,70.82
1759,70.79
1758,70.78
1757,70.8
1756,70.8
1755,70.78
1754,70.77
1753,70.77
1752,70.75
1751,70.74
1750,70.77
1749,70.82
1748,70.85
1747,70.87
1746,70.88
1745,70.9
1744,70.91
1743,70.91
1742,70.91
1741,70.91
1740,70.87
1739,70.8
1738,70.73
1737,70.69
1736,70.69
1735,70.74
1734,70.81
1733,70.88
1732,70.94
1731,70.95
1730,70.9
1729,70.82
1728,70.74
1727,70.71
1726,70.73
1725,70.78
1724,70.83
1723,70.87
1722,70.89
1721,70.9
1720,70.91
1719,70.93
1718,70.95
1717,70.95
1716,70.95
1715,70.97
1714,70.96
1713,70.93
1712,70.92
1711,70.91
1710,70.89
1709,70.89
1708,70.92
1707,70.94
1706,70.92
1705,70.86
1704,70.84
1703,70.88
1702,70.93
1701,70.96
1700,70.98
1699,71.05
1698,71.13
1697,71.14
1696,71.08
1695,70.97
1694,70.88
1693,70.84
1692,70.83
1691,70.83
1690,70.82
1689,70.79
1688,70.78
1687,70.81
1686,70.89
1685,71
1684,71
1683,70.91
1682,70.86
1681,70.85
1680,70.84
1679,70.81
1678,70.8
1677,70.81
1676,70.81
1675,70.79
1674,70.77
1673,70.77
1672,70.78
1671,70.79
1670,70.8
1669,70.8
1668,70.8
1667,70.79
1666,70.81
1665,70.85
1664,70.9
1663,70.9
1662,70.86
1661,70.83
1660,70.82
1659,70.79
1658,70.74
1657,70.68
1656,70.61
1655,70.61
1654,70.74
1653,70.9
1652,71
1651,71.02
1650,70.98
1649,70.94
1648,70.91
1647,70.88
1646,70.84
1645,70.83
1644,70.83
1643,70.81
1642,70.77
1641,70.71
1640,70.65
1639,70.64
1638,70.68
1637,70.76
1636,70.79
1635,70.75
1634,70.72
1633,70.73
1632,70.72
1631,70.69
1630,70.66
1629,70.66
1628,70.68
1627,70.68
1626,70.66
1625,70.65
1624,70.65
1623,70.64
1622,70.63
1621,70.66
1620,70.72
1619,70.79
1618,70.84
1617,70.88
1616,70.91
1615,70.92
1614,70.9
1613,70.87
1612,70.83
1611,70.76
1610,70.72
1609,70.72
1608,70.73
1607,70.72
1606,70.71
1605,70.71
1604,70.7
1603,70.68
1602,70.67
1601,70.68
1600,70.7
1599,70.68
1598,70.64
1597,70.63
1596,70.63
1595,70.63
1594,70.63
1593,70.66
1592,70.7
1591,70.72
1590,70.71
1589,70.68
1588,70.63
1587,70.59
1586,70.55
1585,70.54
1584,70.57
1583,70.61
1582,70.65
1581,70.69
1580,70.72
1579,70.74
1578,70.76
1577,70.79
1576,70.78
1575,70.75
1574,70.73
1573,70.75
1572,70.8
1571,70.87
1570,70.91
1569,70.91
1568,70.88
1567,70.86
1566,70.86
1565,70.88
1564,70.87
1563,70.84
1562,70.81
1561,70.83
1560,70.99
1559,71.21
1558,71.29
1557,71.27
1556,71.21
1555,71.11
1554,71.01
1553,70.94
1552,70.89
1551,70.85
1550,70.83
1549,70.85
1548,70.89
1547,70.92
1546,70.92
1545,70.93
1544,70.96
1543,71.03
1542,71.14
1541,71.27
1540,71.36
1539,71.32
1538,71.23
1537,71.15
1536,71.08
1535,71.02
1534,70.96
1533,70.92
1532,70.9
1531,70.9
1530,70.9
1529,70.89
1528,70.88
1527,70.88
1526,70.89
1525,70.9
1524,70.93
1523,70.98
1522,71
1521,71
1520,71.02
1519,71.07
1518,71.09
1517,71.06
1516,70.99
1515,70.93
1514,70.92
1513,70.9
1512,70.9
1511,70.91
1510,70.94
1509,70.99
1508,71.07
1507,71.14
1506,71.11
1505,71.04
1504,70.99
1503,70.96
1502,70.95
1501,70.96
1500,70.99
1499,71.03
1498,71.07
1497,71.05
1496,70.99
1495,70.92
1494,70.86
1493,70.77
1492,70.69
1491,70.64
1490,70.62
1489,70.61
1488,70.63
1487,70.68
1486,70.71
1485,70.72
1484,70.72
1483,70.72
1482,70.71
1481,70.69
1480,70.69
1479,70.72
1478,70.73
1477,70.71
1476,70.68
1475,70.68
1474,70.73
1473,70.78
1472,70.81
1471,70.82
1470,70.81
1469,70.78
1468,70.74
1467,70.7
1466,70.69
1465,70.68
1464,70.67
1463,70.67
1462,70.67
1461,70.65
1460,70.64
1459,70.68
1458,70.74
1457,70.75
1456,70.7
1455,70.67
1454,70.68
1453,70.69
1452,70.69
1451,70.68
1450,70.67
1449,70.65
1448,70.63
1447,70.63
1446,70.66
1445,70.7
1444,70.73
1443,70.77
1442,70.8
1441,70.81
1440,70.75
1439,70.67
1438,70.59
1437,70.55
1436,70.58
1435,70.66
1434,70.73
1433,70.75
1432,70.75
1431,70.78
1430,70.82
1429,70.84
1428,70.82
1427,70.79
1426,70.79
1425,70.81
1424,70.81
1423,70.81
1422,70.82
1421,70.83
1420,70.83
1419,70.85
1418,70.89
1417,70.92
1416,70.91
1415,70.88
1414,70.85
1413,70.85
1412,70.85
1411,70.87
1410,70.9
1409,70.92
1408,70.91
1407,70.87
1406,70.81
1405,70.76
1404,70.73
1403,70.72
1402,70.73
1401,70.72
1400,70.68
1399,70.65
1398,70.67
1397,70.71
1396,70.72
1395,70.71
1394,70.72
1393,70.75
1392,70.78
1391,70.79
1390,70.81
1389,70.83
1388,70.81
1387,70.76
1386,70.7
1385,70.66
1384,70.66
1383,70.68
1382,70.72
1381,70.75
1380,70.76
1379,70.74
1378,70.7
1377,70.65
1376,70.62
1375,70.6
1374,70.61
1373,70.61
1372,70.59
1371,70.57
1370,70.56
1369,70.57
1368,70.59
1367,70.61
1366,70.63
1365,70.63
1364,70.6
1363,70.54
1362,70.5
1361,70.5
1360,70.53
1359,70.56
1358,70.57
1357,70.59
1356,70.62
1355,70.66
1354,70.71
1353,70.73
1352,70.72
1351,70.7
1350,70.68
1349,70.65
1348,70.62
1347,70.62
1346,70.64
1345,70.66
1344,70.67
1343,70.67
1342,70.69
1341,70.7
1340,70.69
1339,70.65
1338,70.59
1337,70.55
1336,70.53
1335,70.55
1334,70.57
1333,70.59
1332,70.6
1331,70.61
1330,70.63
1329,70.65
1328,70.66
1327,70.65
1326,70.65
1325,70.66
1324,70.65
1323,70.62
1322,70.59
1321,70.6
1320,70.64
1319,70.7
1318,70.74
1317,70.75
1316,70.73
1315,70.68
1314,70.63
1313,70.59
1312,70.58
1311,70.59
1310,70.61
1309,70.63
1308,70.64
1307,70.64
1306,70.63
1305,70.61
1304,70.59
1303,70.58
1302,70.6
1301,70.65
1300,70.67
1299,70.67
1298,70.64
1297,70.63
1296,70.62
1295,70.63
1294,70.64
1293,70.64
1292,70.63
1291,70.61
1290,70.6
1289,70.59
1288,70.6
1287,70.6
1286,70.6
1285,70.59
1284,70.58
1283,70.59
1282,70.63
1281,70.65
1280,70.62
1279,70.57
1278,70.54
1277,70.57
1276,70.62
1275,70.66
1274,70.7
1273,70.74
1272,70.75
1271,70.74
1270,70.72
1269,70.71
1268,70.7
1267,70.68
1266,70.65
1265,70.64
1264,70.65
1263,70.67
1262,70.69
1261,70.71
1260,70.73
1259,70.75
1258,70.78
1257,70.8
1256,70.83
1255,70.85
1254,70.87
1253,70.86
1252,70.83
1251,70.77
1250,70.74
1249,70.75
1248,70.79
1247,70.81
1246,70.8
1245,70.78
1244,70.77
1243,70.8
1242,70.85
1241,70.88
1240,70.88
1239,70.86
1238,70.83
1237,70.81
1236,70.81
1235,70.84
1234,70.89
1233,70.92
1232,70.94
1231,70.96
1230,70.99
1229,71.02
1228,71.03
1227,71
1226,70.98
1225,70.98
1224,70.99
1223,71.02
1222,71.03
1221,71.04
1220,71.05
1219,71.07
1218,71.14
1217,71.22
1216,71.25
1215,71.2
1214,71.1
1213,71.03
1212,71.02
1211,71.07
1210,71.13
1209,71.15
1208,71.11
1207,71.06
1206,71.03
1205,71.07
1204,71.15
1203,71.21
1202,71.22
1201,71.19
1200,71.16
1199,71.17
1198,71.22
1197,71.29
1196,71.35
1195,71.36
1194,71.36
1193,71.35
1192,71.36
1191,71.37
1190,71.36
1189,71.35
1188,71.34
1187,71.34
1186,71.36
1185,71.39
1184,71.42
1183,71.45
1182,71.46
1181,71.46
1180,71.46
1179,71.46
1178,71.46
1177,71.46
1176,71.47
1175,71.48
1174,71.51
1173,71.57
1172,71.64
1171,71.65
1170,71.61
1169,71.53
1168,71.48
1167,71.48
1166,71.56
1165,71.68
1164,71.83
1163,71.94
1162,71.96
1161,71.92
1160,71.86
1159,71.83
1158,71.84
1157,71.87
1156,71.9
1155,71.94
1154,72
1153,72.03
1152,72
1151,71.93
1150,71.86
1149,71.83
1148,71.82
1147,71.83
1146,71.86
1145,71.91
1144,71.95
1143,71.95
1142,71.9
1141,71.83
1140,71.8
1139,71.8
1138,71.84
1137,71.88
1136,71.92
1135,71.95
1134,72
1133,72.05
1132,72.06
1131,72
1130,71.92
1129,71.9
1128,71.95
1127,72.06
1126,72.14
1125,72.15
1124,72.13
1123,72.09
1122,72.06
1121,72.04
1120,72
1119,71.98
1118,72.01
1117,72.1
1116,72.2
1115,72.28
1114,72.28
1113,72.21
1112,72.12
1111,72.08
1110,72.11
1109,72.17
1108,72.23
1107,72.25
1106,72.26
1105,72.28
1104,72.34
1103,72.41
1102,72.44
1101,72.41
1100,72.35
1099,72.3
1098,72.31
1097,72.36
1096,72.4
1095,72.37
1094,72.29
1093,72.19
1092,72.16
1091,72.18
1090,72.22
1089,72.26
1088,72.3
1087,72.34
1086,72.36
1085,72.34
1084,72.32
1083,72.34
1082,72.41
1081,72.49
1080,72.5
1079,72.44
1078,72.35
1077,72.29
1076,72.3
1075,72.34
1074,72.39
1073,72.43
1072,72.46
1071,72.46
1070,72.41
1069,72.27
1068,72.11
1067,72
1066,71.98
1065,72.03
1064,72.11
1063,72.2
1062,72.28
1061,72.37
1060,72.44
1059,72.49
1058,72.49
1057,72.43
1056,72.32
1055,72.22
1054,72.2
1053,72.27
1052,72.38
1051,72.46
1050,72.44
1049,72.36
1048,72.3
1047,72.31
1046,72.35
1045,72.38
1044,72.41
1043,72.46
1042,72.53
1041,72.61
1040,72.66
1039,72.71
1038,72.76
1037,72.76
1036,72.67
1035,72.53
1034,72.46
1033,72.46
1032,72.48
1031,72.46
1030,72.38
1029,72.29
1028,72.25
1027,72.26
1026,72.33
1025,72.4
1024,72.4
1023,72.34
1022,72.26
1021,72.21
1020,72.22
1019,72.27
1018,72.34
1017,72.38
1016,72.38
1015,72.31
1014,72.24
1013,72.21
1012,72.26
1011,72.35
1010,72.39
1009,72.33
1008,72.19
1007,72.06
1006,71.99
1005,71.97
1004,71.95
1003,71.93
1002,71.93
1001,71.96
1000,71.99
999,72.01
998,72.04
997,72.08
996,72.08
995,72.04
994,71.98
993,71.93
992,71.91
991,71.92
990,71.96
989,72
988,72.01
987,72
986,71.99
985,72.01
984,72.03
983,72.02
982,72
981,71.97
980,71.96
979,71.95
978,71.96
977,71.99
976,72.04
975,72.07
974,72.07
973,72.06
972,72.07
971,72.13
970,72.22
969,72.29
968,72.31
967,72.27
966,72.21
965,72.15
964,72.08
963,72.01
962,71.95
961,71.92
960,71.93
959,71.99
958,72.13
957,72.3
956,72.4
955,72.38
954,72.27
953,72.16
952,72.11
951,72.15
950,72.26
949,72.4
948,72.49
947,72.47
946,72.39
945,72.34
944,72.37
943,72.43
942,72.46
941,72.45
940,72.41
939,72.35
938,72.31
937,72.3
936,72.33
935,72.37
934,72.39
933,72.39
932,72.39
931,72.42
930,72.46
929,72.49
928,72.51
927,72.53
926,72.55
925,72.56
924,72.57
923,72.58
922,72.58
921,72.57
920,72.54
919,72.52
918,72.53
917,72.53
916,72.5
915,72.45
914,72.43
913,72.47
912,72.5
911,72.5
910,72.46
909,72.45
908,72.47
907,72.51
906,72.55
905,72.58
904,72.57
903,72.53
902,72.49
901,72.51
900,72.59
899,72.68
898,72.71
897,72.66
896,72.55
895,72.41
894,72.29
893,72.23
892,72.24
891,72.27
890,72.31
889,72.33
888,72.33
887,72.31
886,72.32
885,72.38
884,72.46
883,72.51
882,72.51
881,72.47
880,72.43
879,72.39
878,72.37
877,72.35
876,72.36
875,72.4
874,72.47
873,72.57
872,72.64
871,72.66
870,72.64
869,72.62
868,72.62
867,72.64
866,72.66
865,72.69
864,72.72
863,72.74
862,72.71
861,72.63
860,72.53
859,72.46
858,72.42
857,72.43
856,72.49
855,72.57
854,72.64
853,72.64
852,72.58
851,72.49
850,72.39
849,72.31
848,72.23
847,72.17
846,72.18
845,72.29
844,72.41
843,72.47
842,72.46
841,72.41
840,72.36
839,72.31
838,72.27
837,72.32
836,72.44
835,72.55
834,72.53
833,72.42
832,72.33
831,72.32
830,72.37
829,72.44
828,72.52
827,72.61
826,72.67
825,72.67
824,72.6
823,72.47
822,72.33
821,72.25
820,72.34
819,72.53
818,72.7
817,72.74
816,72.69
815,72.66
814,72.7
813,72.78
812,72.81
811,72.79
810,72.75
809,72.74
808,72.75
807,72.79
806,72.82
805,72.87
804,72.95
803,73.04
802,73.08
801,73
800,72.88
799,72.85
798,72.99
797,73.22
796,73.38
795,73.37
794,73.24
793,73.12
792,73.13
791,73.24
790,73.32
789,73.31
788,73.2
787,73.11
786,73.11
785,73.2
784,73.35
783,73.46
782,73.47
781,73.35
780,73.2
779,73.11
778,73.07
777,73.03
776,72.92
775,72.77
774,72.66
773,72.64
772,72.72
771,72.82
770,72.9
769,72.91
768,72.91
767,72.92
766,72.96
765,72.97
764,72.94
763,72.88
762,72.82
761,72.79
760,72.77
759,72.76
758,72.76
757,72.74
756,72.69
755,72.62
754,72.57
753,72.6
752,72.69
751,72.77
750,72.77
749,72.68
748,72.59
747,72.56
746,72.63
745,72.75
744,72.89
743,72.99
742,73.02
741,73
740,73.02
739,73.14
738,73.3
737,73.4
736,73.42
735,73.44
734,73.51
733,73.6
732,73.69
731,73.74
730,73.73
729,73.7
728,73.73
727,73.92
726,74.2
725,74.43
724,74.51
723,74.51
722,74.51
721,74.55
720,74.6
719,74.65
718,74.7
717,74.72
716,74.67
715,74.57
714,74.45
713,74.29
712,74.04
711,73.73
710,73.47
709,73.31
708,73.21
707,73.12
706,73.07
705,73.13
704,73.28
703,73.45
702,73.55
701,73.56
700,73.52
699,73.5
698,73.54
697,73.65
696,73.8
695,74.01
694,74.31
693,74.67
692,75.04
691,75.36
690,75.59
689,75.7
688,75.69
687,75.63
686,75.61
685,75.65
684,75.69
683,75.66
682,75.61
681,75.6
680,75.69
679,75.85
678,76
677,76.05
676,75.96
675,75.73
674,75.42
673,75.14
672,74.97
671,74.89
670,74.85
669,74.86
668,74.92
667,75.05
666,75.22
665,75.34
664,75.31
663,75.15
662,75.01
661,74.96
660,74.93
659,74.8
658,74.63
657,74.51
656,74.49
655,74.57
654,74.74
653,74.99
652,75.24
651,75.39
650,75.44
