Created as New Dataset,
cm-1,ARB
4000.00,2863.05
3999.00,2873.86
3998.00,2885.84
3997.00,2896.95
3996.00,2905.46
3995.00,2910.35
3994.00,2912.07
3993.00,2913.13
3992.00,2917.06
3991.00,2925.78
3990.00,2937.66
3989.00,2948.51
3988.00,2955.39
3987.00,2959.49
3986.00,2964.66
3985.00,2973.58
3984.00,2985.28
3983.00,2997.20
3982.00,3008.67
3981.00,3021.07
3980.00,3035.42
3979.00,3050.63
3978.00,3065.05
3977.00,3078.60
3976.00,3092.17
3975.00,3105.68
3974.00,3118.18
3973.00,3129.70
3972.00,3141.57
3971.00,3154.56
3970.00,3167.86
3969.00,3180.73
3968.00,3194.20
3967.00,3209.80
3966.00,3227.15
3965.00,3244.30
3964.00,3259.93
3963.00,3274.45
3962.00,3288.37
3961.00,3300.98
3960.00,3311.44
3959.00,3320.52
3958.00,3330.38
3957.00,3342.59
3956.00,3356.84
3955.00,3371.29
3954.00,3383.81
3953.00,3393.19
3952.00,3400.06
3951.00,3406.87
3950.00,3416.21
3949.00,3428.77
3948.00,3443.00
3947.00,3457.17
3946.00,3471.22
3945.00,3485.81
3944.00,3500.33
3943.00,3512.73
3942.00,3522.03
3941.00,3529.92
3940.00,3539.38
3939.00,3551.01
3938.00,3562.13
3937.00,3570.33
3936.00,3576.53
3935.00,3584.38
3934.00,3596.48
3933.00,3611.51
3932.00,3625.38
3931.00,3634.61
3930.00,3638.24
3929.00,3637.59
3928.00,3635.83
3927.00,3636.81
3926.00,3642.55
3925.00,3651.37
3924.00,3659.53
3923.00,3664.99
3922.00,3669.15
3921.00,3674.73
3920.00,3682.75
3919.00,3692.36
3918.00,3703.13
3917.00,3715.95
3916.00,3731.20
3915.00,3747.23
3914.00,3761.86
3913.00,3775.18
3912.00,3790.07
3911.00,3808.79
3910.00,3830.35
3909.00,3851.42
3908.00,3869.09
3907.00,3883.28
3906.00,3896.26
3905.00,3910.53
3904.00,3927.20
3903.00,3945.31
3902.00,3963.26
3901.00,3980.17
3900.00,3995.59
3899.00,4009.28
3898.00,4020.97
3897.00,4030.58
3896.00,4039.01
3895.00,4047.38
3894.00,4055.67
3893.00,4062.88
3892.00,4067.35
3891.00,4068.71
3890.00,4068.51
3889.00,4068.51
3888.00,4069.92
3887.00,4073.36
3886.00,4078.53
3885.00,4084.94
3884.00,4092.57
3883.00,4101.21
3882.00,4110.63
3881.00,4120.31
3880.00,4130.05
3879.00,4141.67
3878.00,4157.58
3877.00,4177.91
3876.00,4200.05
3875.00,4220.10
3874.00,4235.53
3873.00,4246.94
3872.00,4256.02
3871.00,4262.43
3870.00,4264.32
3869.00,4261.26
3868.00,4255.61
3867.00,4250.72
3866.00,4249.44
3865.00,4252.49
3864.00,4257.22
3863.00,4258.95
3862.00,4255.41
3861.00,4247.69
3860.00,4237.38
3859.00,4225.33
3858.00,4212.08
3857.00,4198.62
3856.00,4185.35
3855.00,4171.21
3854.00,4155.68
3853.00,4140.08
3852.00,4125.35
3851.00,4111.11
3850.00,4096.88
3849.00,4083.09
3848.00,4070.77
3847.00,4060.25
3846.00,4051.24
3845.00,4043.35
3844.00,4036.23
3843.00,4030.53
3842.00,4028.29
3841.00,4030.96
3840.00,4038.31
3839.00,4049.67
3838.00,4063.92
3837.00,4079.76
3836.00,4096.72
3835.00,4115.52
3834.00,4136.60
3833.00,4157.27
3832.00,4172.83
3831.00,4181.25
3830.00,4184.64
3829.00,4186.52
3828.00,4188.34
3827.00,4188.19
3826.00,4184.02
3825.00,4176.90
3824.00,4169.64
3823.00,4164.53
3822.00,4162.25
3821.00,4162.16
3820.00,4164.23
3819.00,4168.64
3818.00,4175.16
3817.00,4183.07
3816.00,4192.05
3815.00,4202.83
3814.00,4215.35
3813.00,4228.03
3812.00,4239.42
3811.00,4249.30
3810.00,4258.43
3809.00,4268.47
3808.00,4279.50
3807.00,4289.48
3806.00,4297.47
3805.00,4304.71
3804.00,4313.76
3803.00,4325.36
3802.00,4336.00
3801.00,4343.06
3800.00,4347.56
3799.00,4351.80
3798.00,4356.38
3797.00,4359.88
3796.00,4360.65
3795.00,4359.00
3794.00,4357.05
3793.00,4356.60
3792.00,4358.10
3791.00,4360.27
3790.00,4361.33
3789.00,4361.66
3788.00,4364.39
3787.00,4372.75
3786.00,4386.87
3785.00,4403.17
3784.00,4418.02
3783.00,4430.83
3782.00,4442.83
3781.00,4454.47
3780.00,4464.83
3779.00,4473.82
3778.00,4483.42
3777.00,4495.39
3776.00,4508.11
3775.00,4517.93
3774.00,4522.89
3773.00,4524.90
3772.00,4526.83
3771.00,4528.66
3770.00,4528.44
3769.00,4526.13
3768.00,4524.23
3767.00,4524.63
3766.00,4525.99
3765.00,4526.01
3764.00,4525.20
3763.00,4525.68
3762.00,4527.86
3761.00,4530.00
3760.00,4530.49
3759.00,4529.34
3758.00,4526.37
3757.00,4521.82
3756.00,4515.87
3755.00,4508.44
3754.00,4498.83
3753.00,4486.61
3752.00,4473.56
3751.00,4462.83
3750.00,4455.75
3749.00,4451.00
3748.00,4447.63
3747.00,4445.98
3746.00,4446.65
3745.00,4448.75
3744.00,4451.89
3743.00,4454.12
3742.00,4452.32
3741.00,4446.33
3740.00,4439.06
3739.00,4432.67
3738.00,4426.42
3737.00,4419.58
3736.00,4413.48
3735.00,4410.43
3734.00,4409.23
3733.00,4405.96
3732.00,4400.15
3731.00,4395.56
3730.00,4394.89
3729.00,4396.33
3728.00,4395.73
3727.00,4391.27
3726.00,4385.67
3725.00,4382.00
3724.00,4379.13
3723.00,4373.97
3722.00,4366.25
3721.00,4358.14
3720.00,4351.39
3719.00,4345.71
3718.00,4339.75
3717.00,4333.41
3716.00,4326.64
3715.00,4317.12
3714.00,4301.10
3713.00,4276.53
3712.00,4246.67
3711.00,4218.71
3710.00,4198.91
3709.00,4188.31
3708.00,4182.82
3707.00,4176.75
3706.00,4166.54
3705.00,4152.74
3704.00,4138.17
3703.00,4124.34
3702.00,4109.61
3701.00,4092.06
3700.00,4072.63
3699.00,4053.38
3698.00,4033.49
3697.00,4010.09
3696.00,3982.33
3695.00,3951.07
3694.00,3916.25
3693.00,3875.62
3692.00,3827.78
3691.00,3773.45
3690.00,3715.06
3689.00,3655.40
3688.00,3596.98
3687.00,3540.70
3686.00,3485.32
3685.00,3429.87
3684.00,3374.71
3683.00,3320.72
3682.00,3268.03
3681.00,3217.63
3680.00,3172.11
3679.00,3133.54
3678.00,3100.33
3677.00,3068.23
3676.00,3036.25
3675.00,3008.31
3674.00,2986.72
3673.00,2969.69
3672.00,2956.58
3671.00,2949.08
3670.00,2947.99
3669.00,2950.08
3668.00,2950.23
3667.00,2945.85
3666.00,2937.69
3665.00,2926.94
3664.00,2914.21
3663.00,2899.47
3662.00,2883.28
3661.00,2867.89
3660.00,2855.72
3659.00,2846.78
3658.00,2838.42
3657.00,2828.43
3656.00,2817.94
3655.00,2808.80
3654.00,2799.97
3653.00,2788.79
3652.00,2774.90
3651.00,2761.21
3650.00,2751.37
3649.00,2745.29
3648.00,2739.26
3647.00,2730.88
3646.00,2720.69
3645.00,2709.99
3644.00,2699.83
3643.00,2690.73
3642.00,2682.25
3641.00,2673.52
3640.00,2664.00
3639.00,2654.06
3638.00,2644.16
3637.00,2634.02
3636.00,2623.02
3635.00,2611.49
3634.00,2601.22
3633.00,2593.81
3632.00,2588.72
3631.00,2583.10
3630.00,2573.94
3629.00,2561.93
3628.00,2551.71
3627.00,2546.18
3626.00,2543.90
3625.00,2542.31
3624.00,2539.75
3623.00,2535.79
3622.00,2530.42
3621.00,2523.61
3620.00,2515.76
3619.00,2508.28
3618.00,2502.88
3617.00,2500.41
3616.00,2500.23
3615.00,2500.40
3614.00,2498.64
3613.00,2493.81
3612.00,2486.49
3611.00,2478.73
3610.00,2473.05
3609.00,2471.16
3608.00,2472.41
3607.00,2473.96
3606.00,2473.27
3605.00,2470.64
3604.00,2468.12
3603.00,2467.27
3602.00,2467.76
3601.00,2468.07
3600.00,2466.88
3599.00,2463.55
3598.00,2458.36
3597.00,2453.13
3596.00,2450.53
3595.00,2451.54
3594.00,2454.97
3593.00,2458.98
3592.00,2462.80
3591.00,2465.75
3590.00,2466.47
3589.00,2464.17
3588.00,2460.27
3587.00,2456.50
3586.00,2452.11
3585.00,2445.99
3584.00,2439.95
3583.00,2437.62
3582.00,2439.85
3581.00,2443.54
3580.00,2445.32
3579.00,2444.87
3578.00,2443.74
3577.00,2442.24
3576.00,2439.84
3575.00,2437.39
3574.00,2436.93
3573.00,2439.10
3572.00,2442.51
3571.00,2445.87
3570.00,2449.16
3569.00,2451.87
3568.00,2451.67
3567.00,2446.91
3566.00,2439.76
3565.00,2434.55
3564.00,2433.00
3563.00,2432.91
3562.00,2431.41
3561.00,2427.88
3560.00,2423.85
3559.00,2420.93
3558.00,2419.59
3557.00,2419.74
3556.00,2421.10
3555.00,2422.78
3554.00,2423.11
3553.00,2420.76
3552.00,2416.18
3551.00,2411.44
3550.00,2408.84
3549.00,2409.53
3548.00,2412.67
3547.00,2415.51
3546.00,2415.08
3545.00,2411.10
3544.00,2406.51
3543.00,2404.12
3542.00,2403.53
3541.00,2402.10
3540.00,2398.64
3539.00,2394.86
3538.00,2392.91
3537.00,2392.89
3536.00,2393.33
3535.00,2393.41
3534.00,2393.32
3533.00,2392.67
3532.00,2390.19
3531.00,2385.40
3530.00,2380.08
3529.00,2377.22
3528.00,2378.45
3527.00,2382.43
3526.00,2385.78
3525.00,2385.64
3524.00,2382.04
3523.00,2377.93
3522.00,2376.30
3521.00,2377.38
3520.00,2378.81
3519.00,2378.39
3518.00,2376.06
3517.00,2373.27
3516.00,2371.10
3515.00,2369.47
3514.00,2367.82
3513.00,2366.06
3512.00,2364.89
3511.00,2365.17
3510.00,2366.59
3509.00,2367.15
3508.00,2364.68
3507.00,2359.16
3506.00,2352.92
3505.00,2348.44
3504.00,2346.63
3503.00,2347.16
3502.00,2349.39
3501.00,2352.23
3500.00,2353.94
3499.00,2353.35
3498.00,2351.12
3497.00,2348.70
3496.00,2346.23
3495.00,2342.76
3494.00,2338.50
3493.00,2335.33
3492.00,2334.23
3491.00,2333.67
3490.00,2331.53
3489.00,2328.16
3488.00,2326.07
3487.00,2326.61
3486.00,2328.13
3485.00,2328.10
3484.00,2326.20
3483.00,2324.60
3482.00,2325.06
3481.00,2326.72
3480.00,2327.16
3479.00,2325.07
3478.00,2320.94
3477.00,2315.55
3476.00,2309.11
3475.00,2302.59
3474.00,2298.71
3473.00,2299.98
3472.00,2305.67
3471.00,2311.82
3470.00,2314.50
3469.00,2313.07
3468.00,2310.44
3467.00,2310.37
3466.00,2314.50
3465.00,2321.20
3464.00,2326.79
3463.00,2327.94
3462.00,2323.59
3461.00,2314.90
3460.00,2304.23
3459.00,2294.45
3458.00,2288.07
3457.00,2285.94
3456.00,2286.70
3455.00,2288.03
3454.00,2288.55
3453.00,2288.05
3452.00,2286.64
3451.00,2284.52
3450.00,2282.41
3449.00,2281.18
3448.00,2280.81
3447.00,2280.57
3446.00,2279.84
3445.00,2278.37
3444.00,2275.85
3443.00,2272.70
3442.00,2270.88
3441.00,2272.04
3440.00,2274.74
3439.00,2275.23
3438.00,2271.74
3437.00,2266.45
3436.00,2262.48
3435.00,2260.35
3434.00,2258.43
3433.00,2255.72
3432.00,2252.43
3431.00,2248.69
3430.00,2244.34
3429.00,2240.07
3428.00,2237.37
3427.00,2237.39
3426.00,2240.13
3425.00,2244.30
3424.00,2247.37
3423.00,2246.59
3422.00,2241.33
3421.00,2234.32
3420.00,2229.37
3419.00,2227.85
3418.00,2228.15
3417.00,2228.15
3416.00,2227.39
3415.00,2226.76
3414.00,2226.96
3413.00,2227.86
3412.00,2228.57
3411.00,2228.09
3410.00,2225.91
3409.00,2222.08
3408.00,2216.70
3407.00,2209.87
3406.00,2202.43
3405.00,2196.29
3404.00,2193.23
3403.00,2193.57
3402.00,2196.10
3401.00,2199.19
3400.00,2201.33
3399.00,2201.07
3398.00,2197.66
3397.00,2191.98
3396.00,2186.17
3395.00,2181.76
3394.00,2178.23
3393.00,2173.82
3392.00,2167.85
3391.00,2161.85
3390.00,2157.79
3389.00,2155.38
3388.00,2152.19
3387.00,2146.86
3386.00,2141.21
3385.00,2137.87
3384.00,2136.62
3383.00,2134.86
3382.00,2131.33
3381.00,2127.18
3380.00,2123.00
3379.00,2117.46
3378.00,2110.15
3377.00,2103.87
3376.00,2101.68
3375.00,2102.85
3374.00,2103.32
3373.00,2099.86
3372.00,2092.59
3371.00,2083.82
3370.00,2076.00
3369.00,2070.30
3368.00,2066.11
3367.00,2061.85
3366.00,2056.93
3365.00,2052.45
3364.00,2049.44
3363.00,2047.29
3362.00,2044.66
3361.00,2040.85
3360.00,2035.46
3359.00,2028.09
3358.00,2019.72
3357.00,2013.31
3356.00,2010.91
3355.00,2010.84
3354.00,2009.60
3353.00,2005.78
3352.00,2000.41
3351.00,1994.07
3350.00,1986.30
3349.00,1977.83
3348.00,1970.87
3347.00,1966.38
3346.00,1963.00
3345.00,1959.41
3344.00,1955.81
3343.00,1952.33
3342.00,1947.75
3341.00,1941.07
3340.00,1933.32
3339.00,1926.57
3338.00,1922.05
3337.00,1919.62
3336.00,1918.34
3335.00,1916.64
3334.00,1912.88
3333.00,1906.55
3332.00,1898.89
3331.00,1892.05
3330.00,1888.10
3329.00,1888.53
3328.00,1893.32
3327.00,1900.17
3326.00,1906.13
3325.00,1910.68
3324.00,1916.53
3323.00,1926.62
3322.00,1941.39
3321.00,1959.36
3320.00,1979.07
3319.00,1999.63
3318.00,2020.62
3317.00,2042.81
3316.00,2068.34
3315.00,2099.00
3314.00,2134.44
3313.00,2172.95
3312.00,2213.86
3311.00,2258.37
3310.00,2308.03
3309.00,2362.62
3308.00,2419.34
3307.00,2474.09
3306.00,2524.02
3305.00,2569.26
3304.00,2612.02
3303.00,2654.02
3302.00,2695.12
3301.00,2734.30
3300.00,2770.45
3299.00,2801.83
3298.00,2826.54
3297.00,2844.29
3296.00,2856.90
3295.00,2866.17
3294.00,2872.39
3293.00,2875.90
3292.00,2878.28
3291.00,2880.33
3290.00,2879.96
3289.00,2874.61
3288.00,2865.25
3287.00,2856.02
3286.00,2849.66
3285.00,2845.13
3284.00,2840.01
3283.00,2833.30
3282.00,2825.27
3281.00,2816.30
3280.00,2806.77
3279.00,2797.26
3278.00,2787.90
3277.00,2778.20
3276.00,2768.38
3275.00,2759.72
3274.00,2752.99
3273.00,2746.93
3272.00,2739.70
3271.00,2731.44
3270.00,2724.54
3269.00,2721.31
3268.00,2721.80
3267.00,2723.75
3266.00,2724.12
3265.00,2721.00
3264.00,2714.79
3263.00,2707.63
3262.00,2701.38
3261.00,2695.93
3260.00,2689.89
3259.00,2682.95
3258.00,2676.93
3257.00,2674.06
3256.00,2674.37
3255.00,2675.25
3254.00,2673.50
3253.00,2667.88
3252.00,2659.79
3251.00,2651.97
3250.00,2646.47
3249.00,2643.44
3248.00,2641.49
3247.00,2639.27
3246.00,2636.68
3245.00,2634.63
3244.00,2633.57
3243.00,2632.59
3242.00,2630.07
3241.00,2625.09
3240.00,2618.37
3239.00,2612.07
3238.00,2608.34
3237.00,2607.48
3236.00,2607.27
3235.00,2604.79
3234.00,2599.23
3233.00,2592.34
3232.00,2586.17
3231.00,2581.22
3230.00,2577.26
3229.00,2574.71
3228.00,2573.89
3227.00,2573.67
3226.00,2572.26
3225.00,2569.40
3224.00,2566.18
3223.00,2562.62
3222.00,2557.09
3221.00,2548.97
3220.00,2540.66
3219.00,2535.64
3218.00,2535.06
3217.00,2536.82
3216.00,2537.78
3215.00,2536.22
3214.00,2532.48
3213.00,2528.19
3212.00,2524.79
3211.00,2522.72
3210.00,2521.89
3209.00,2522.59
3208.00,2525.24
3207.00,2529.03
3206.00,2531.82
3205.00,2532.21
3204.00,2530.83
3203.00,2528.81
3202.00,2525.69
3201.00,2520.24
3200.00,2513.17
3199.00,2507.35
3198.00,2505.00
3197.00,2505.43
3196.00,2506.40
3195.00,2506.88
3194.00,2507.51
3193.00,2508.89
3192.00,2510.58
3191.00,2512.01
3190.00,2513.38
3189.00,2515.03
3188.00,2516.31
3187.00,2515.99
3186.00,2513.65
3185.00,2510.50
3184.00,2508.45
3183.00,2508.74
3182.00,2511.12
3181.00,2513.89
3180.00,2514.78
3179.00,2512.63
3178.00,2508.65
3177.00,2505.69
3176.00,2505.49
3175.00,2507.17
3174.00,2508.75
3173.00,2509.36
3172.00,2509.46
3171.00,2509.37
3170.00,2508.99
3169.00,2508.66
3168.00,2509.11
3167.00,2509.89
3166.00,2509.03
3165.00,2505.13
3164.00,2499.30
3163.00,2494.50
3162.00,2492.75
3161.00,2493.43
3160.00,2494.33
3159.00,2494.15
3158.00,2493.94
3157.00,2495.69
3156.00,2499.41
3155.00,2502.38
3154.00,2501.85
3153.00,2498.10
3152.00,2493.66
3151.00,2490.02
3150.00,2486.26
3149.00,2481.33
3148.00,2476.22
3147.00,2473.07
3146.00,2473.19
3145.00,2476.18
3144.00,2480.42
3143.00,2483.38
3142.00,2482.72
3141.00,2478.09
3140.00,2471.52
3139.00,2465.65
3138.00,2461.67
3137.00,2459.47
3136.00,2458.82
3135.00,2459.31
3134.00,2459.73
3133.00,2458.93
3132.00,2457.18
3131.00,2455.89
3130.00,2455.80
3129.00,2456.12
3128.00,2455.63
3127.00,2454.11
3126.00,2452.32
3125.00,2450.95
3124.00,2449.72
3123.00,2447.66
3122.00,2444.21
3121.00,2440.25
3120.00,2437.34
3119.00,2436.14
3118.00,2435.81
3117.00,2435.49
3116.00,2435.36
3115.00,2435.81
3114.00,2436.07
3113.00,2435.02
3112.00,2432.81
3111.00,2430.82
3110.00,2429.56
3109.00,2427.97
3108.00,2424.96
3107.00,2421.21
3106.00,2418.84
3105.00,2419.54
3104.00,2423.03
3103.00,2427.11
3102.00,2429.12
3101.00,2427.94
3100.00,2424.80
3099.00,2422.32
3098.00,2422.40
3097.00,2425.03
3096.00,2428.62
3095.00,2431.20
3094.00,2431.91
3093.00,2431.58
3092.00,2431.72
3091.00,2432.52
3090.00,2432.29
3089.00,2429.74
3088.00,2426.21
3087.00,2424.92
3086.00,2427.56
3085.00,2432.38
3084.00,2435.97
3083.00,2436.44
3082.00,2434.77
3081.00,2433.50
3080.00,2434.38
3079.00,2437.09
3078.00,2439.98
3077.00,2441.86
3076.00,2442.84
3075.00,2443.69
3074.00,2444.83
3073.00,2446.49
3072.00,2448.88
3071.00,2451.58
3070.00,2453.30
3069.00,2453.44
3068.00,2453.77
3067.00,2456.98
3066.00,2463.23
3065.00,2469.41
3064.00,2472.47
3063.00,2472.83
3062.00,2473.51
3061.00,2476.50
3060.00,2480.97
3059.00,2484.58
3058.00,2485.67
3057.00,2484.37
3056.00,2482.26
3055.00,2481.26
3054.00,2482.37
3053.00,2485.24
3052.00,2488.96
3051.00,2492.99
3050.00,2496.76
3049.00,2498.93
3048.00,2497.94
3047.00,2493.81
3046.00,2488.79
3045.00,2485.60
3044.00,2484.99
3043.00,2485.44
3042.00,2485.21
3041.00,2484.04
3040.00,2482.72
3039.00,2481.62
3038.00,2480.58
3037.00,2480.13
3036.00,2481.57
3035.00,2485.16
3034.00,2488.65
3033.00,2489.00
3032.00,2485.65
3031.00,2481.04
3030.00,2477.95
3029.00,2476.55
3028.00,2474.81
3027.00,2471.02
3026.00,2465.44
3025.00,2459.91
3024.00,2456.12
3023.00,2454.25
3022.00,2452.95
3021.00,2450.72
3020.00,2447.69
3019.00,2445.60
3018.00,2445.82
3017.00,2447.51
3016.00,2448.12
3015.00,2445.94
3014.00,2441.51
3013.00,2436.94
3012.00,2433.81
3011.00,2432.13
3010.00,2431.03
3009.00,2429.83
3008.00,2428.32
3007.00,2426.23
3006.00,2422.99
3005.00,2418.63
3004.00,2414.54
3003.00,2412.54
3002.00,2412.87
3001.00,2413.38
3000.00,2411.28
2999.00,2405.67
2998.00,2398.01
2997.00,2390.32
2996.00,2383.40
2995.00,2377.02
2994.00,2371.34
2993.00,2367.32
2992.00,2365.47
2991.00,2364.48
2990.00,2361.98
2989.00,2357.07
2988.00,2351.46
2987.00,2347.36
2986.00,2344.74
2985.00,2341.26
2984.00,2335.29
2983.00,2327.54
2982.00,2319.97
2981.00,2314.02
2980.00,2310.42
2979.00,2309.22
2978.00,2308.71
2977.00,2305.50
2976.00,2297.48
2975.00,2286.61
2974.00,2277.20
2973.00,2271.24
2972.00,2266.89
2971.00,2261.59
2970.00,2255.54
2969.00,2250.85
2968.00,2249.10
2967.00,2249.92
2966.00,2251.66
2965.00,2252.23
2964.00,2250.38
2963.00,2246.75
2962.00,2243.14
2961.00,2240.31
2960.00,2237.18
2959.00,2232.88
2958.00,2228.00
2957.00,2223.10
2956.00,2217.23
2955.00,2209.44
2954.00,2201.24
2953.00,2195.63
2952.00,2194.28
2951.00,2196.90
2950.00,2202.97
2949.00,2212.19
2948.00,2223.42
2947.00,2235.41
2946.00,2249.00
2945.00,2266.93
2944.00,2290.24
2943.00,2316.42
2942.00,2341.88
2941.00,2365.50
2940.00,2388.83
2939.00,2414.02
2938.00,2442.28
2937.00,2473.20
2936.00,2504.58
2935.00,2533.74
2934.00,2560.12
2933.00,2585.89
2932.00,2612.98
2931.00,2640.57
2930.00,2666.53
2929.00,2690.14
2928.00,2711.60
2927.00,2729.72
2926.00,2742.62
2925.00,2751.02
2924.00,2758.43
2923.00,2767.16
2922.00,2776.12
2921.00,2783.12
2920.00,2788.03
2919.00,2792.05
2918.00,2795.31
2917.00,2796.51
2916.00,2794.66
2915.00,2789.95
2914.00,2783.31
2913.00,2776.06
2912.00,2769.49
2911.00,2764.12
2910.00,2759.59
2909.00,2755.72
2908.00,2753.34
2907.00,2753.16
2906.00,2754.25
2905.00,2754.55
2904.00,2752.66
2903.00,2748.53
2902.00,2742.40
2901.00,2734.42
2900.00,2725.43
2899.00,2717.26
2898.00,2711.15
2897.00,2706.55
2896.00,2701.98
2895.00,2696.97
2894.00,2692.19
2893.00,2687.95
2892.00,2683.22
2891.00,2676.50
2890.00,2667.47
2889.00,2657.23
2888.00,2647.38
2887.00,2638.75
2886.00,2631.07
2885.00,2623.50
2884.00,2615.71
2883.00,2608.58
2882.00,2603.93
2881.00,2603.04
2880.00,2605.30
2879.00,2608.63
2878.00,2611.43
2877.00,2614.38
2876.00,2619.86
2875.00,2629.46
2874.00,2641.80
2873.00,2652.92
2872.00,2659.68
2871.00,2662.48
2870.00,2664.75
2869.00,2669.28
2868.00,2675.83
2867.00,2682.38
2866.00,2688.23
2865.00,2694.97
2864.00,2704.45
2863.00,2717.36
2862.00,2733.55
2861.00,2752.61
2860.00,2773.21
2859.00,2793.11
2858.00,2810.83
2857.00,2826.99
2856.00,2843.00
2855.00,2858.95
2854.00,2873.73
2853.00,2886.71
2852.00,2898.03
2851.00,2907.37
2850.00,2913.60
2849.00,2915.80
2848.00,2914.03
2847.00,2908.69
2846.00,2900.00
2845.00,2888.54
2844.00,2875.48
2843.00,2862.06
2842.00,2849.33
2841.00,2838.34
2840.00,2829.82
2839.00,2823.12
2838.00,2816.36
2837.00,2808.42
2836.00,2800.42
2835.00,2794.74
2834.00,2792.55
2833.00,2792.69
2832.00,2792.95
2831.00,2791.78
2830.00,2789.27
2829.00,2786.46
2828.00,2784.06
2827.00,2781.93
2826.00,2779.82
2825.00,2777.92
2824.00,2776.49
2823.00,2775.10
2822.00,2773.07
2821.00,2770.47
2820.00,2768.10
2819.00,2766.43
2818.00,2765.07
2817.00,2763.33
2816.00,2760.53
2815.00,2756.31
2814.00,2751.37
2813.00,2747.79
2812.00,2747.41
2811.00,2749.53
2810.00,2751.32
2809.00,2750.73
2808.00,2748.17
2807.00,2745.17
2806.00,2742.59
2805.00,2740.90
2804.00,2740.89
2803.00,2742.73
2802.00,2744.84
2801.00,2744.88
2800.00,2741.87
2799.00,2736.94
2798.00,2732.09
2797.00,2728.91
2796.00,2728.01
2795.00,2728.98
2794.00,2731.06
2793.00,2733.72
2792.00,2736.50
2791.00,2738.24
2790.00,2737.54
2789.00,2734.67
2788.00,2731.63
2787.00,2729.55
2786.00,2727.08
2785.00,2722.66
2784.00,2717.67
2783.00,2715.34
2782.00,2716.83
2781.00,2719.85
2780.00,2721.37
2779.00,2720.64
2778.00,2718.99
2777.00,2718.09
2776.00,2718.80
2775.00,2720.82
2774.00,2722.88
2773.00,2723.75
2772.00,2723.50
2771.00,2723.17
2770.00,2723.14
2769.00,2722.60
2768.00,2720.71
2767.00,2717.98
2766.00,2715.96
2765.00,2716.15
2764.00,2718.98
2763.00,2723.06
2762.00,2725.38
2761.00,2723.13
2760.00,2716.58
2759.00,2709.56
2758.00,2706.32
2757.00,2707.79
2756.00,2711.22
2755.00,2713.12
2754.00,2712.43
2753.00,2710.81
2752.00,2710.66
2751.00,2712.85
2750.00,2716.35
2749.00,2719.41
2748.00,2720.90
2747.00,2720.63
2746.00,2719.10
2745.00,2717.37
2744.00,2716.55
2743.00,2716.90
2742.00,2717.38
2741.00,2716.83
2740.00,2715.42
2739.00,2714.32
2738.00,2714.31
2737.00,2715.32
2736.00,2717.33
2735.00,2720.41
2734.00,2723.57
2733.00,2724.55
2732.00,2721.87
2731.00,2716.44
2730.00,2710.97
2729.00,2707.93
2728.00,2708.33
2727.00,2711.59
2726.00,2715.93
2725.00,2719.45
2724.00,2721.30
2723.00,2722.01
2722.00,2722.27
2721.00,2722.12
2720.00,2721.59
2719.00,2721.46
2718.00,2722.49
2717.00,2724.25
2716.00,2725.60
2715.00,2725.98
2714.00,2725.70
2713.00,2725.02
2712.00,2723.87
2711.00,2722.50
2710.00,2721.45
2709.00,2720.55
2708.00,2718.62
2707.00,2714.84
2706.00,2710.21
2705.00,2707.04
2704.00,2706.98
2703.00,2709.66
2702.00,2713.15
2701.00,2715.60
2700.00,2716.50
2699.00,2716.57
2698.00,2716.72
2697.00,2717.15
2696.00,2717.44
2695.00,2716.99
2694.00,2715.51
2693.00,2713.28
2692.00,2711.13
2691.00,2709.88
2690.00,2709.50
2689.00,2709.28
2688.00,2708.88
2687.00,2708.99
2686.00,2710.31
2685.00,2712.21
2684.00,2713.02
2683.00,2712.06
2682.00,2710.83
2681.00,2711.61
2680.00,2714.92
2679.00,2718.74
2678.00,2720.49
2677.00,2719.60
2676.00,2718.05
2675.00,2718.05
2674.00,2719.73
2673.00,2721.36
2672.00,2721.53
2671.00,2720.30
2670.00,2718.28
2669.00,2715.61
2668.00,2712.63
2667.00,2710.76
2666.00,2711.47
2665.00,2714.35
2664.00,2717.24
2663.00,2718.73
2662.00,2719.48
2661.00,2720.86
2660.00,2722.91
2659.00,2724.44
2658.00,2724.66
2657.00,2723.78
2656.00,2722.32
2655.00,2720.49
2654.00,2718.57
2653.00,2717.24
2652.00,2716.96
2651.00,2717.27
2650.00,2717.09
2649.00,2715.87
2648.00,2714.39
2647.00,2714.29
2646.00,2716.73
2645.00,2721.28
2644.00,2725.91
2643.00,2728.30
2642.00,2727.36
2641.00,2723.87
2640.00,2719.90
2639.00,2717.50
2638.00,2717.53
2637.00,2719.32
2636.00,2721.31
2635.00,2722.23
2634.00,2721.90
2633.00,2720.93
2632.00,2719.96
2631.00,2719.18
2630.00,2718.52
2629.00,2718.00
2628.00,2717.69
2627.00,2717.70
2626.00,2718.28
2625.00,2719.69
2624.00,2721.58
2623.00,2722.83
2622.00,2722.46
2621.00,2720.84
2620.00,2719.58
2619.00,2719.95
2618.00,2721.42
2617.00,2722.01
2616.00,2720.19
2615.00,2716.45
2614.00,2712.98
2613.00,2711.90
2612.00,2713.63
2611.00,2716.77
2610.00,2719.30
2609.00,2719.77
2608.00,2717.78
2607.00,2713.92
2606.00,2709.78
2605.00,2707.40
2604.00,2707.76
2603.00,2709.71
2602.00,2710.94
2601.00,2710.40
2600.00,2709.30
2599.00,2709.28
2598.00,2710.08
2597.00,2709.97
2596.00,2708.12
2595.00,2705.94
2594.00,2705.52
2593.00,2707.46
2592.00,2710.59
2591.00,2713.38
2590.00,2714.98
2589.00,2714.99
2588.00,2713.14
2587.00,2709.94
2586.00,2707.14
2585.00,2706.96
2584.00,2710.14
2583.00,2714.95
2582.00,2718.45
2581.00,2718.97
2580.00,2717.44
2579.00,2716.32
2578.00,2717.27
2577.00,2719.72
2576.00,2721.52
2575.00,2721.05
2574.00,2718.79
2573.00,2716.79
2572.00,2716.61
2571.00,2718.00
2570.00,2719.83
2569.00,2721.80
2568.00,2724.59
2567.00,2728.66
2566.00,2733.57
2565.00,2738.66
2564.00,2743.36
2563.00,2746.68
2562.00,2747.41
2561.00,2745.60
2560.00,2743.34
2559.00,2742.75
2558.00,2743.80
2557.00,2744.78
2556.00,2744.83
2555.00,2744.67
2554.00,2745.04
2553.00,2745.59
2552.00,2745.86
2551.00,2746.21
2550.00,2747.34
2549.00,2749.50
2548.00,2752.69
2547.00,2756.74
2546.00,2760.69
2545.00,2762.90
2544.00,2762.53
2543.00,2760.60
2542.00,2758.88
2541.00,2758.21
2540.00,2758.48
2539.00,2759.49
2538.00,2761.00
2537.00,2762.33
2536.00,2763.16
2535.00,2764.40
2534.00,2767.20
2533.00,2771.01
2532.00,2773.86
2531.00,2774.84
2530.00,2775.20
2529.00,2776.62
2528.00,2779.22
2527.00,2782.11
2526.00,2784.84
2525.00,2787.50
2524.00,2789.95
2523.00,2791.80
2522.00,2793.21
2521.00,2794.85
2520.00,2797.03
2519.00,2799.48
2518.00,2801.87
2517.00,2804.15
2516.00,2806.24
2515.00,2807.97
2514.00,2809.42
2513.00,2810.92
2512.00,2812.52
2511.00,2813.76
2510.00,2814.23
2509.00,2814.18
2508.00,2814.26
2507.00,2814.75
2506.00,2815.37
2505.00,2815.85
2504.00,2816.58
2503.00,2818.35
2502.00,2821.36
2501.00,2824.57
2500.00,2826.46
2499.00,2826.41
2498.00,2824.89
2497.00,2822.59
2496.00,2819.71
2495.00,2816.65
2494.00,2814.81
2493.00,2815.78
2492.00,2819.59
2491.00,2824.29
2490.00,2827.43
2489.00,2827.91
2488.00,2826.46
2487.00,2824.76
2486.00,2824.10
2485.00,2824.27
2484.00,2823.70
2483.00,2821.01
2482.00,2816.75
2481.00,2813.26
2480.00,2812.54
2479.00,2814.61
2478.00,2818.28
2477.00,2822.72
2476.00,2827.40
2475.00,2831.00
2474.00,2832.03
2473.00,2830.83
2472.00,2830.09
2471.00,2832.51
2470.00,2838.25
2469.00,2845.31
2468.00,2851.85
2467.00,2857.62
2466.00,2863.29
2465.00,2869.37
2464.00,2875.96
2463.00,2882.59
2462.00,2888.12
2461.00,2891.48
2460.00,2893.08
2459.00,2894.89
2458.00,2898.76
2457.00,2904.87
2456.00,2912.12
2455.00,2919.46
2454.00,2926.38
2453.00,2932.74
2452.00,2938.95
2451.00,2945.83
2450.00,2953.42
2449.00,2960.25
2448.00,2964.79
2447.00,2967.48
2446.00,2970.37
2445.00,2974.39
2444.00,2978.42
2443.00,2981.17
2442.00,2982.82
2441.00,2984.13
2440.00,2985.11
2439.00,2985.71
2438.00,2986.90
2437.00,2989.60
2436.00,2992.98
2435.00,2995.22
2434.00,2996.01
2433.00,2996.90
2432.00,2999.11
2431.00,3001.94
2430.00,3003.97
2429.00,3004.75
2428.00,3005.10
2427.00,3006.04
2426.00,3007.83
2425.00,3009.64
2424.00,3010.17
2423.00,3009.23
2422.00,3008.72
2421.00,3010.93
2420.00,3015.72
2419.00,3020.28
2418.00,3022.47
2417.00,3023.28
2416.00,3025.08
2415.00,3028.19
2414.00,3030.53
2413.00,3030.39
2412.00,3028.57
2411.00,3027.35
2410.00,3028.31
2409.00,3031.33
2408.00,3035.08
2407.00,3038.18
2406.00,3039.98
2405.00,3040.70
2404.00,3040.88
2403.00,3041.17
2402.00,3042.42
2401.00,3045.66
2400.00,3051.09
2399.00,3057.25
2398.00,3061.63
2397.00,3062.64
2396.00,3060.78
2395.00,3058.05
2394.00,3056.14
2393.00,3055.00
2392.00,3053.09
2391.00,3049.28
2390.00,3044.49
2389.00,3040.96
2388.00,3039.61
2387.00,3038.87
2386.00,3036.89
2385.00,3034.17
2384.00,3033.28
2383.00,3036.09
2382.00,3041.91
2381.00,3048.49
2380.00,3053.77
2379.00,3056.75
2378.00,3057.31
2377.00,3056.21
2376.00,3054.52
2375.00,3052.56
2374.00,3050.48
2373.00,3049.51
2372.00,3052.09
2371.00,3058.67
2370.00,3065.64
2369.00,3068.47
2368.00,3066.90
2367.00,3063.76
2366.00,3060.01
2365.00,3056.12
2364.00,3056.60
2363.00,3063.10
2362.00,3070.54
2361.00,3073.70
2360.00,3071.88
2359.00,3071.24
2358.00,3073.04
2357.00,3069.64
2356.00,3059.58
2355.00,3047.50
2354.00,3042.76
2353.00,3049.71
2352.00,3071.49
2351.00,3106.23
2350.00,3135.62
2349.00,3140.81
2348.00,3114.82
2347.00,3073.69
2346.00,3044.46
2345.00,3036.75
2344.00,3043.77
2343.00,3046.68
2342.00,3044.72
2341.00,3043.95
2340.00,3044.22
2339.00,3041.28
2338.00,3032.29
2337.00,3024.06
2336.00,3019.61
2335.00,3018.36
2334.00,3013.07
2333.00,3004.97
2332.00,2994.78
2331.00,2988.73
2330.00,2981.65
2329.00,2979.90
2328.00,2981.74
2327.00,2986.49
2326.00,2987.63
2325.00,2984.11
2324.00,2982.45
2323.00,2984.09
2322.00,2986.52
2321.00,2985.68
2320.00,2983.25
2319.00,2985.96
2318.00,2993.66
2317.00,3005.45
2316.00,3014.70
2315.00,3023.26
2314.00,3029.54
2313.00,3037.46
2312.00,3043.29
2311.00,3048.13
2310.00,3049.69
2309.00,3052.40
2308.00,3056.42
2307.00,3063.21
2306.00,3069.51
2305.00,3075.63
2304.00,3080.54
2303.00,3085.61
2302.00,3089.17
2301.00,3092.75
2300.00,3096.15
2299.00,3101.04
2298.00,3105.45
2297.00,3109.17
2296.00,3111.02
2295.00,3112.36
2294.00,3113.66
2293.00,3115.79
2292.00,3118.22
2291.00,3119.91
2290.00,3120.15
2289.00,3119.33
2288.00,3118.65
2287.00,3118.27
2286.00,3118.22
2285.00,3118.70
2284.00,3120.19
2283.00,3121.56
2282.00,3121.38
2281.00,3119.83
2280.00,3119.01
2279.00,3119.97
2278.00,3121.44
2277.00,3121.92
2276.00,3121.31
2275.00,3120.28
2274.00,3118.31
2273.00,3115.06
2272.00,3111.80
2271.00,3110.58
2270.00,3111.57
2269.00,3112.80
2268.00,3112.34
2267.00,3109.94
2266.00,3106.67
2265.00,3103.99
2264.00,3103.11
2263.00,3104.45
2262.00,3107.23
2261.00,3109.55
2260.00,3109.53
2259.00,3106.13
2258.00,3100.55
2257.00,3095.99
2256.00,3095.25
2255.00,3097.77
2254.00,3099.69
2253.00,3098.05
2252.00,3093.50
2251.00,3089.09
2250.00,3086.66
2249.00,3086.10
2248.00,3086.63
2247.00,3087.65
2246.00,3088.45
2245.00,3088.50
2244.00,3088.16
2243.00,3088.16
2242.00,3088.45
2241.00,3088.23
2240.00,3087.06
2239.00,3085.01
2238.00,3082.22
2237.00,3078.90
2236.00,3075.75
2235.00,3073.46
2234.00,3071.76
2233.00,3069.65
2232.00,3066.42
2231.00,3062.11
2230.00,3057.19
2229.00,3052.53
2228.00,3048.95
2227.00,3046.14
2226.00,3042.25
2225.00,3035.72
2224.00,3027.20
2223.00,3018.93
2222.00,3012.49
2221.00,3008.10
2220.00,3005.63
2219.00,3004.89
2218.00,3004.81
2217.00,3003.76
2216.00,3001.26
2215.00,2998.40
2214.00,2996.29
2213.00,2995.00
2212.00,2994.26
2211.00,2994.32
2210.00,2995.57
2209.00,2998.07
2208.00,3001.70
2207.00,3005.99
2206.00,3009.37
2205.00,3009.63
2204.00,3005.92
2203.00,2999.80
2202.00,2993.82
2201.00,2989.53
2200.00,2986.91
2199.00,2985.11
2198.00,2982.86
2197.00,2978.97
2196.00,2973.11
2195.00,2966.04
2194.00,2958.63
2193.00,2951.22
2192.00,2944.46
2191.00,2939.84
2190.00,2938.28
2189.00,2938.51
2188.00,2938.09
2187.00,2936.22
2186.00,2934.42
2185.00,2934.07
2184.00,2934.50
2183.00,2934.10
2182.00,2932.79
2181.00,2931.88
2180.00,2932.05
2179.00,2932.39
2178.00,2932.14
2177.00,2932.23
2176.00,2934.08
2175.00,2937.26
2174.00,2939.34
2173.00,2938.44
2172.00,2935.18
2171.00,2931.62
2170.00,2928.63
2169.00,2925.29
2168.00,2920.62
2167.00,2915.35
2166.00,2911.48
2165.00,2910.17
2164.00,2910.56
2163.00,2910.60
2162.00,2909.08
2161.00,2906.54
2160.00,2904.18
2159.00,2902.44
2158.00,2901.12
2157.00,2900.49
2156.00,2901.34
2155.00,2903.74
2154.00,2906.83
2153.00,2910.09
2152.00,2914.13
2151.00,2919.43
2150.00,2924.97
2149.00,2929.18
2148.00,2931.83
2147.00,2933.95
2146.00,2936.06
2145.00,2937.72
2144.00,2938.97
2143.00,2941.02
2142.00,2944.68
2141.00,2948.97
2140.00,2952.19
2139.00,2953.95
2138.00,2955.19
2137.00,2956.59
2136.00,2957.84
2135.00,2958.98
2134.00,2961.30
2133.00,2965.99
2132.00,2972.31
2131.00,2977.92
2130.00,2981.38
2129.00,2983.51
2128.00,2985.93
2127.00,2988.83
2126.00,2991.01
2125.00,2991.97
2124.00,2992.91
2123.00,2995.24
2122.00,2999.03
2121.00,3003.32
2120.00,3007.31
2119.00,3010.51
2118.00,3012.27
2117.00,3012.21
2116.00,3011.18
2115.00,3010.88
2114.00,3012.19
2113.00,3014.36
2112.00,3015.87
2111.00,3015.82
2110.00,3014.22
2109.00,3011.38
2108.00,3007.59
2107.00,3003.11
2106.00,2998.33
2105.00,2993.79
2104.00,2989.94
2103.00,2987.06
2102.00,2985.31
2101.00,2984.78
2100.00,2985.30
2099.00,2986.20
2098.00,2986.46
2097.00,2985.65
2096.00,2984.57
2095.00,2984.72
2094.00,2986.73
2093.00,2989.47
2092.00,2990.90
2091.00,2990.08
2090.00,2988.45
2089.00,2988.96
2088.00,2993.29
2087.00,3000.28
2086.00,3006.81
2085.00,3010.36
2084.00,3010.51
2083.00,3008.42
2082.00,3005.45
2081.00,3002.25
2080.00,2998.85
2079.00,2995.53
2078.00,2993.69
2077.00,2995.42
2076.00,3001.19
2075.00,3008.28
2074.00,3012.72
2073.00,3013.03
2072.00,3011.14
2071.00,3009.51
2070.00,3008.64
2069.00,3008.03
2068.00,3007.92
2067.00,3008.64
2066.00,3009.02
2065.00,3007.25
2064.00,3003.12
2063.00,2998.16
2062.00,2993.50
2061.00,2989.02
2060.00,2984.80
2059.00,2981.93
2058.00,2981.37
2057.00,2982.75
2056.00,2984.78
2055.00,2986.30
2054.00,2986.63
2053.00,2985.82
2052.00,2984.83
2051.00,2985.16
2050.00,2987.57
2049.00,2991.49
2048.00,2995.76
2047.00,2999.60
2046.00,3002.59
2045.00,3004.44
2044.00,3005.39
2043.00,3006.54
2042.00,3008.88
2041.00,3012.14
2040.00,3014.98
2039.00,3016.49
2038.00,3017.30
2037.00,3018.98
2036.00,3022.58
2035.00,3027.67
2034.00,3032.80
2033.00,3036.73
2032.00,3039.53
2031.00,3042.43
2030.00,3046.60
2029.00,3051.95
2028.00,3057.24
2027.00,3061.41
2026.00,3065.00
2025.00,3069.85
2024.00,3077.17
2023.00,3086.14
2022.00,3094.77
2021.00,3102.03
2020.00,3108.76
2019.00,3116.26
2018.00,3124.77
2017.00,3133.16
2016.00,3139.98
2015.00,3144.19
2014.00,3145.51
2013.00,3144.54
2012.00,3142.53
2011.00,3140.38
2010.00,3138.30
2009.00,3136.45
2008.00,3135.44
2007.00,3135.85
2006.00,3137.51
2005.00,3139.73
2004.00,3141.63
2003.00,3142.23
2002.00,3140.86
2001.00,3138.24
2000.00,3136.35
1999.00,3136.80
1998.00,3139.55
1997.00,3143.50
1996.00,3147.56
1995.00,3150.81
1994.00,3152.53
1993.00,3152.86
1992.00,3153.09
1991.00,3154.38
1990.00,3156.02
1989.00,3156.22
1988.00,3154.47
1987.00,3152.28
1986.00,3151.28
1985.00,3151.58
1984.00,3152.36
1983.00,3153.16
1982.00,3154.12
1981.00,3155.34
1980.00,3156.35
1979.00,3156.01
1978.00,3153.09
1977.00,3147.31
1976.00,3140.02
1975.00,3133.36
1974.00,3128.45
1973.00,3124.59
1972.00,3120.51
1971.00,3116.15
1970.00,3112.89
1969.00,3112.07
1968.00,3113.70
1967.00,3116.84
1966.00,3120.96
1965.00,3126.39
1964.00,3133.17
1963.00,3140.42
1962.00,3147.23
1961.00,3153.50
1960.00,3159.32
1959.00,3164.11
1958.00,3167.13
1957.00,3169.10
1956.00,3171.88
1955.00,3176.44
1954.00,3181.82
1953.00,3186.72
1952.00,3191.13
1951.00,3195.59
1950.00,3199.95
1949.00,3203.77
1948.00,3207.16
1947.00,3210.23
1946.00,3212.50
1945.00,3213.89
1944.00,3215.23
1943.00,3216.87
1942.00,3217.87
1941.00,3218.00
1940.00,3218.70
1939.00,3220.99
1938.00,3224.17
1937.00,3226.78
1936.00,3228.08
1935.00,3228.05
1934.00,3226.33
1933.00,3222.85
1932.00,3219.14
1931.00,3217.28
1930.00,3217.47
1929.00,3218.04
1928.00,3217.49
1927.00,3215.63
1926.00,3212.80
1925.00,3209.45
1924.00,3206.79
1923.00,3205.78
1922.00,3205.82
1921.00,3205.23
1920.00,3202.61
1919.00,3197.96
1918.00,3192.40
1917.00,3187.42
1916.00,3183.91
1915.00,3180.62
1914.00,3174.96
1913.00,3165.65
1912.00,3154.14
1911.00,3142.88
1910.00,3133.01
1909.00,3123.99
1908.00,3114.84
1907.00,3105.01
1906.00,3094.39
1905.00,3083.47
1904.00,3073.47
1903.00,3065.17
1902.00,3058.21
1901.00,3052.04
1900.00,3046.48
1899.00,3041.18
1898.00,3035.45
1897.00,3029.05
1896.00,3022.55
1895.00,3016.06
1894.00,3008.70
1893.00,2999.86
1892.00,2990.13
1891.00,2980.52
1890.00,2971.14
1889.00,2961.41
1888.00,2951.47
1887.00,2941.32
1886.00,2930.20
1885.00,2918.61
1884.00,2908.93
1883.00,2903.09
1882.00,2900.60
1881.00,2899.66
1880.00,2899.41
1879.00,2900.15
1878.00,2902.07
1877.00,2904.35
1876.00,2906.11
1875.00,2907.17
1874.00,2907.30
1873.00,2905.97
1872.00,2903.75
1871.00,2903.61
1870.00,2909.19
1869.00,2920.04
1868.00,2930.27
1867.00,2934.79
1866.00,2933.65
1865.00,2930.16
1864.00,2927.45
1863.00,2926.15
1862.00,2924.71
1861.00,2922.01
1860.00,2918.62
1859.00,2915.19
1858.00,2911.36
1857.00,2906.88
1856.00,2902.63
1855.00,2899.44
1854.00,2896.80
1853.00,2893.53
1852.00,2888.90
1851.00,2882.63
1850.00,2874.97
1849.00,2865.94
1848.00,2854.82
1847.00,2841.13
1846.00,2826.62
1845.00,2815.75
1844.00,2811.37
1843.00,2810.32
1842.00,2807.10
1841.00,2800.70
1840.00,2794.70
1839.00,2791.59
1838.00,2789.20
1837.00,2783.55
1836.00,2774.07
1835.00,2763.42
1834.00,2753.71
1833.00,2745.50
1832.00,2739.66
1831.00,2737.44
1830.00,2736.60
1829.00,2731.60
1828.00,2720.35
1827.00,2705.27
1826.00,2690.69
1825.00,2680.33
1824.00,2674.29
1823.00,2668.90
1822.00,2660.26
1821.00,2648.62
1820.00,2637.94
1819.00,2630.93
1818.00,2625.81
1817.00,2619.40
1816.00,2611.60
1815.00,2604.22
1814.00,2597.50
1813.00,2590.37
1812.00,2582.82
1811.00,2575.48
1810.00,2567.60
1809.00,2558.46
1808.00,2549.32
1807.00,2541.71
1806.00,2534.90
1805.00,2526.97
1804.00,2517.43
1803.00,2507.09
1802.00,2496.43
1801.00,2485.73
1800.00,2476.53
1799.00,2470.47
1798.00,2466.13
1797.00,2460.20
1796.00,2451.01
1795.00,2439.10
1794.00,2425.95
1793.00,2413.73
1792.00,2404.72
1791.00,2399.45
1790.00,2395.99
1789.00,2391.39
1788.00,2384.73
1787.00,2377.38
1786.00,2370.50
1785.00,2363.70
1784.00,2356.23
1783.00,2348.01
1782.00,2339.36
1781.00,2330.63
1780.00,2322.27
1779.00,2315.06
1778.00,2308.58
1777.00,2301.53
1776.00,2293.64
1775.00,2285.76
1774.00,2278.82
1773.00,2272.64
1772.00,2265.41
1771.00,2256.59
1770.00,2248.12
1769.00,2240.39
1768.00,2233.00
1767.00,2226.51
1766.00,2220.85
1765.00,2214.02
1764.00,2204.55
1763.00,2194.19
1762.00,2186.57
1761.00,2183.27
1760.00,2182.28
1759.00,2180.39
1758.00,2176.40
1757.00,2171.72
1756.00,2168.12
1755.00,2165.92
1754.00,2163.66
1753.00,2159.42
1752.00,2152.14
1751.00,2142.07
1750.00,2130.59
1749.00,2120.45
1748.00,2115.44
1747.00,2117.01
1746.00,2121.83
1745.00,2123.79
1744.00,2119.10
1743.00,2108.98
1742.00,2097.17
1741.00,2086.52
1740.00,2078.72
1739.00,2074.51
1738.00,2072.73
1737.00,2070.96
1736.00,2067.42
1735.00,2062.81
1734.00,2058.98
1733.00,2055.43
1732.00,2050.32
1731.00,2042.59
1730.00,2033.84
1729.00,2025.93
1728.00,2019.70
1727.00,2014.81
1726.00,2010.62
1725.00,2006.91
1724.00,2003.48
1723.00,1999.02
1722.00,1991.18
1721.00,1979.71
1720.00,1968.42
1719.00,1962.44
1718.00,1961.25
1717.00,1957.34
1716.00,1947.24
1715.00,1934.11
1714.00,1921.43
1713.00,1911.16
1712.00,1903.21
1711.00,1895.74
1710.00,1886.82
1709.00,1876.07
1708.00,1864.19
1707.00,1851.43
1706.00,1836.93
1705.00,1821.36
1704.00,1808.42
1703.00,1797.90
1702.00,1782.92
1701.00,1758.42
1700.00,1732.87
1699.00,1719.27
1698.00,1715.71
1697.00,1710.83
1696.00,1696.69
1695.00,1676.01
1694.00,1656.53
1693.00,1639.15
1692.00,1621.56
1691.00,1601.27
1690.00,1577.51
1689.00,1553.63
1688.00,1534.48
1687.00,1520.50
1686.00,1506.57
1685.00,1486.40
1684.00,1456.84
1683.00,1424.31
1682.00,1399.62
1681.00,1381.12
1680.00,1363.85
1679.00,1345.87
1678.00,1327.99
1677.00,1310.48
1676.00,1292.52
1675.00,1274.38
1674.00,1258.66
1673.00,1246.78
1672.00,1237.63
1671.00,1230.20
1670.00,1224.96
1669.00,1224.56
1668.00,1231.97
1667.00,1247.24
1666.00,1269.56
1665.00,1301.60
1664.00,1348.76
1663.00,1413.02
1662.00,1489.29
1661.00,1573.29
1660.00,1667.92
1659.00,1777.82
1658.00,1901.09
1657.00,2030.18
1656.00,2163.64
1655.00,2323.90
1654.00,2563.63
1653.00,2895.46
1652.00,3211.41
1651.00,3436.21
1650.00,3599.34
1649.00,3772.42
1648.00,4000.30
1647.00,4273.73
1646.00,4536.63
1645.00,4755.44
1644.00,4932.91
1643.00,5080.63
1642.00,5209.94
1641.00,5324.31
1640.00,5418.77
1639.00,5489.80
1638.00,5542.61
1637.00,5586.87
1636.00,5620.53
1635.00,5630.46
1634.00,5614.47
1633.00,5567.78
1632.00,5483.21
1631.00,5360.90
1630.00,5207.43
1629.00,5036.14
1628.00,4862.15
1627.00,4698.59
1626.00,4553.84
1625.00,4427.80
1624.00,4314.50
1623.00,4209.10
1622.00,4113.81
1621.00,4032.75
1620.00,3963.54
1619.00,3901.50
1618.00,3841.52
1617.00,3777.06
1616.00,3704.71
1615.00,3630.45
1614.00,3562.57
1613.00,3503.82
1612.00,3452.63
1611.00,3406.56
1610.00,3365.03
1609.00,3327.63
1608.00,3292.67
1607.00,3259.03
1606.00,3226.98
1605.00,3195.52
1604.00,3161.68
1603.00,3124.10
1602.00,3084.29
1601.00,3044.50
1600.00,3006.56
1599.00,2972.03
1598.00,2940.58
1597.00,2908.97
1596.00,2874.68
1595.00,2839.46
1594.00,2806.57
1593.00,2775.61
1592.00,2743.51
1591.00,2709.48
1590.00,2675.28
1589.00,2641.62
1588.00,2608.15
1587.00,2576.28
1586.00,2547.96
1585.00,2521.94
1584.00,2494.83
1583.00,2466.37
1582.00,2439.37
1581.00,2413.91
1580.00,2387.45
1579.00,2360.78
1578.00,2337.71
1577.00,2317.75
1576.00,2294.52
1575.00,2266.02
1574.00,2237.73
1573.00,2212.33
1572.00,2189.50
1571.00,2170.28
1570.00,2157.53
1569.00,2150.79
1568.00,2147.91
1567.00,2149.27
1566.00,2155.97
1565.00,2166.84
1564.00,2177.86
1563.00,2187.09
1562.00,2195.77
1561.00,2206.94
1560.00,2238.29
1559.00,2301.59
1558.00,2364.20
1557.00,2414.71
1556.00,2457.70
1555.00,2505.50
1554.00,2567.82
1553.00,2641.28
1552.00,2720.74
1551.00,2814.43
1550.00,2931.96
1549.00,3065.58
1548.00,3200.63
1547.00,3336.19
1546.00,3483.90
1545.00,3647.28
1544.00,3812.23
1543.00,3967.84
1542.00,4125.59
1541.00,4301.45
1540.00,4476.74
1539.00,4610.52
1538.00,4694.27
1537.00,4733.80
1536.00,4746.36
1535.00,4751.31
1534.00,4755.67
1533.00,4751.03
1532.00,4731.27
1531.00,4700.18
1530.00,4657.90
1529.00,4605.54
1528.00,4548.40
1527.00,4488.49
1526.00,4424.42
1525.00,4359.09
1524.00,4299.13
1523.00,4247.80
1522.00,4199.88
1521.00,4147.66
1520.00,4095.26
1519.00,4049.55
1518.00,4009.88
1517.00,3971.59
1516.00,3930.39
1515.00,3889.13
1514.00,3850.25
1513.00,3813.39
1512.00,3780.16
1511.00,3751.72
1510.00,3726.27
1509.00,3702.80
1508.00,3682.69
1507.00,3655.41
1506.00,3616.55
1505.00,3592.50
1504.00,3578.54
1503.00,3560.79
1502.00,3540.07
1501.00,3517.78
1500.00,3495.17
1499.00,3475.04
1498.00,3457.90
1497.00,3439.10
1496.00,3416.02
1495.00,3390.92
1494.00,3364.29
1493.00,3334.90
1492.00,3303.82
1491.00,3274.16
1490.00,3246.53
1489.00,3218.97
1488.00,3193.16
1487.00,3169.63
1486.00,3145.37
1485.00,3119.49
1484.00,3093.19
1483.00,3067.23
1482.00,3042.60
1481.00,3021.60
1480.00,3007.23
1479.00,3001.33
1478.00,3006.22
1477.00,3025.80
1476.00,3061.62
1475.00,3109.91
1474.00,3164.04
1473.00,3213.07
1472.00,3241.85
1471.00,3247.10
1470.00,3237.95
1469.00,3222.96
1468.00,3209.93
1467.00,3207.96
1466.00,3225.79
1465.00,3263.72
1464.00,3308.52
1463.00,3344.11
1462.00,3361.75
1461.00,3361.01
1460.00,3348.14
1459.00,3332.84
1458.00,3322.32
1457.00,3314.76
1456.00,3307.55
1455.00,3300.60
1454.00,3290.12
1453.00,3277.61
1452.00,3264.08
1451.00,3248.83
1450.00,3232.66
1449.00,3217.82
1448.00,3205.69
1447.00,3195.93
1446.00,3188.22
1445.00,3181.95
1444.00,3175.77
1443.00,3169.88
1442.00,3165.21
1441.00,3160.95
1440.00,3154.80
1439.00,3146.32
1438.00,3139.00
1437.00,3137.97
1436.00,3143.96
1435.00,3152.02
1434.00,3156.03
1433.00,3152.60
1432.00,3142.52
1431.00,3129.72
1430.00,3118.86
1429.00,3111.41
1428.00,3106.01
1427.00,3100.46
1426.00,3094.17
1425.00,3088.28
1424.00,3082.33
1423.00,3075.95
1422.00,3071.91
1421.00,3076.72
1420.00,3101.35
1419.00,3151.80
1418.00,3214.73
1417.00,3270.84
1416.00,3311.74
1415.00,3337.08
1414.00,3349.25
1413.00,3350.48
1412.00,3341.61
1411.00,3324.33
1410.00,3302.65
1409.00,3280.04
1408.00,3257.82
1407.00,3236.90
1406.00,3218.71
1405.00,3202.74
1404.00,3185.60
1403.00,3166.06
1402.00,3146.22
1401.00,3128.57
1400.00,3113.81
1399.00,3100.33
1398.00,3086.94
1397.00,3074.57
1396.00,3064.13
1395.00,3055.14
1394.00,3047.24
1393.00,3040.61
1392.00,3034.13
1391.00,3027.16
1390.00,3021.22
1389.00,3017.86
1388.00,3016.39
1387.00,3014.06
1386.00,3009.31
1385.00,3003.31
1384.00,2997.93
1383.00,2995.24
1382.00,2996.93
1381.00,3002.53
1380.00,3009.54
1379.00,3015.67
1378.00,3020.74
1377.00,3026.47
1376.00,3035.00
1375.00,3047.59
1374.00,3063.85
1373.00,3082.62
1372.00,3102.50
1371.00,3121.57
1370.00,3138.97
1369.00,3154.65
1368.00,3166.75
1367.00,3172.80
1366.00,3173.17
1365.00,3171.57
1364.00,3172.06
1363.00,3175.43
1362.00,3179.66
1361.00,3183.47
1360.00,3185.91
1359.00,3185.14
1358.00,3180.83
1357.00,3175.07
1356.00,3170.15
1355.00,3166.81
1354.00,3164.91
1353.00,3163.97
1352.00,3162.47
1351.00,3158.22
1350.00,3150.70
1349.00,3142.14
1348.00,3134.59
1347.00,3127.99
1346.00,3121.64
1345.00,3116.30
1344.00,3113.10
1343.00,3111.63
1342.00,3110.27
1341.00,3107.58
1340.00,3102.13
1339.00,3092.92
1338.00,3081.53
1337.00,3071.25
1336.00,3063.84
1335.00,3058.52
1334.00,3053.65
1333.00,3048.27
1332.00,3042.35
1331.00,3036.46
1330.00,3031.71
1329.00,3029.04
1328.00,3027.59
1327.00,3024.67
1326.00,3018.47
1325.00,3010.28
1324.00,3003.17
1323.00,2998.93
1322.00,2996.70
1321.00,2994.22
1320.00,2989.63
1319.00,2982.40
1318.00,2973.37
1317.00,2963.96
1316.00,2955.04
1315.00,2946.94
1314.00,2940.34
1313.00,2936.26
1312.00,2934.54
1311.00,2933.20
1310.00,2930.23
1309.00,2925.75
1308.00,2921.66
1307.00,2919.24
1306.00,2918.14
1305.00,2917.70
1304.00,2918.03
1303.00,2919.16
1302.00,2919.87
1301.00,2918.30
1300.00,2913.58
1299.00,2906.40
1298.00,2897.93
1297.00,2889.00
1296.00,2880.14
1295.00,2871.95
1294.00,2864.83
1293.00,2858.54
1292.00,2852.26
1291.00,2844.85
1290.00,2835.28
1289.00,2823.40
1288.00,2810.96
1287.00,2801.41
1286.00,2797.75
1285.00,2800.46
1284.00,2807.88
1283.00,2818.59
1282.00,2833.09
1281.00,2853.36
1280.00,2881.19
1279.00,2917.17
1278.00,2960.46
1277.00,3008.67
1276.00,3057.90
1275.00,3103.88
1274.00,3143.93
1273.00,3177.87
1272.00,3206.74
1271.00,3231.44
1270.00,3252.65
1269.00,3271.04
1268.00,3286.59
1267.00,3298.42
1266.00,3305.78
1265.00,3309.06
1264.00,3309.40
1263.00,3307.71
1262.00,3304.67
1261.00,3301.04
1260.00,3297.54
1259.00,3294.17
1258.00,3290.12
1257.00,3284.59
1256.00,3277.93
1255.00,3271.73
1254.00,3267.53
1253.00,3265.40
1252.00,3264.01
1251.00,3262.43
1250.00,3261.00
1249.00,3260.25
1248.00,3259.54
1247.00,3257.56
1246.00,3253.58
1245.00,3247.62
1244.00,3240.01
1243.00,3231.68
1242.00,3224.54
1241.00,3220.28
1240.00,3218.50
1239.00,3217.26
1238.00,3215.52
1237.00,3214.25
1236.00,3214.36
1235.00,3214.21
1234.00,3210.35
1233.00,3201.18
1232.00,3189.71
1231.00,3182.09
1230.00,3182.35
1229.00,3188.29
1228.00,3193.22
1227.00,3192.56
1226.00,3188.39
1225.00,3186.70
1224.00,3190.47
1223.00,3196.74
1222.00,3200.18
1221.00,3198.11
1220.00,3191.35
1219.00,3181.84
1218.00,3171.06
1217.00,3160.20
1216.00,3150.21
1215.00,3141.08
1214.00,3131.82
1213.00,3121.61
1212.00,3110.64
1211.00,3099.75
1210.00,3089.78
1209.00,3081.74
1208.00,3076.86
1207.00,3076.43
1206.00,3082.64
1205.00,3100.28
1204.00,3135.89
1203.00,3192.15
1202.00,3262.77
1201.00,3335.03
1200.00,3398.45
1199.00,3449.84
1198.00,3490.02
1197.00,3518.24
1196.00,3531.87
1195.00,3530.70
1194.00,3519.15
1193.00,3503.45
1192.00,3487.67
1191.00,3472.50
1190.00,3456.64
1189.00,3439.04
1188.00,3421.22
1187.00,3407.55
1186.00,3401.98
1185.00,3404.47
1184.00,3412.06
1183.00,3422.95
1182.00,3437.44
1181.00,3454.71
1180.00,3471.34
1179.00,3484.61
1178.00,3495.31
1177.00,3505.73
1176.00,3516.38
1175.00,3526.34
1174.00,3534.78
1173.00,3540.28
1172.00,3540.47
1171.00,3535.05
1170.00,3527.91
1169.00,3523.42
1168.00,3521.05
1167.00,3516.59
1166.00,3508.47
1165.00,3500.04
1164.00,3495.20
1163.00,3494.16
1162.00,3494.34
1161.00,3493.48
1160.00,3490.69
1159.00,3486.05
1158.00,3479.99
1157.00,3472.47
1156.00,3462.48
1155.00,3450.00
1154.00,3438.53
1153.00,3433.66
1152.00,3437.60
1151.00,3446.39
1150.00,3453.98
1149.00,3458.82
1148.00,3464.87
1147.00,3476.03
1146.00,3490.71
1145.00,3502.80
1144.00,3508.15
1143.00,3509.23
1142.00,3512.91
1141.00,3523.82
1140.00,3540.54
1139.00,3557.82
1138.00,3571.35
1137.00,3579.93
1136.00,3584.64
1135.00,3587.20
1134.00,3588.99
1133.00,3590.32
1132.00,3590.79
1131.00,3590.39
1130.00,3589.34
1129.00,3587.07
1128.00,3582.81
1127.00,3577.62
1126.00,3574.08
1125.00,3572.83
1124.00,3571.31
1123.00,3567.19
1122.00,3561.33
1121.00,3556.00
1120.00,3552.10
1119.00,3550.57
1118.00,3554.10
1117.00,3564.22
1116.00,3577.06
1115.00,3585.04
1114.00,3583.66
1113.00,3575.45
1112.00,3567.02
1111.00,3563.55
1110.00,3565.62
1109.00,3569.46
1108.00,3570.39
1107.00,3566.92
1106.00,3561.70
1105.00,3557.97
1104.00,3556.59
1103.00,3557.11
1102.00,3559.35
1101.00,3561.84
1100.00,3561.05
1099.00,3555.13
1098.00,3547.57
1097.00,3543.63
1096.00,3543.73
1095.00,3543.52
1094.00,3540.02
1093.00,3534.54
1092.00,3529.27
1091.00,3524.48
1090.00,3520.32
1089.00,3518.68
1088.00,3521.33
1087.00,3527.35
1086.00,3533.39
1085.00,3535.91
1084.00,3533.44
1083.00,3527.76
1082.00,3523.39
1081.00,3524.48
1080.00,3531.24
1079.00,3539.41
1078.00,3542.93
1077.00,3537.51
1076.00,3523.82
1075.00,3508.46
1074.00,3499.77
1073.00,3500.16
1072.00,3503.64
1071.00,3503.13
1070.00,3498.39
1069.00,3494.50
1068.00,3494.78
1067.00,3498.72
1066.00,3505.24
1065.00,3513.08
1064.00,3517.94
1063.00,3514.60
1062.00,3504.13
1061.00,3494.74
1060.00,3493.25
1059.00,3498.09
1058.00,3502.84
1057.00,3504.47
1056.00,3505.54
1055.00,3509.76
1054.00,3517.67
1053.00,3526.20
1052.00,3530.40
1051.00,3526.61
1050.00,3515.99
1049.00,3505.02
1048.00,3500.88
1047.00,3505.82
1046.00,3516.07
1045.00,3525.29
1044.00,3528.79
1043.00,3525.81
1042.00,3519.00
1041.00,3511.78
1040.00,3505.87
1039.00,3501.43
1038.00,3498.43
1037.00,3497.13
1036.00,3497.62
1035.00,3499.54
1034.00,3501.86
1033.00,3502.59
1032.00,3500.15
1031.00,3496.08
1030.00,3494.81
1029.00,3499.19
1028.00,3506.85
1027.00,3512.52
1026.00,3513.08
1025.00,3509.03
1024.00,3502.63
1023.00,3496.79
1022.00,3494.67
1021.00,3497.22
1020.00,3500.49
1019.00,3498.45
1018.00,3490.09
1017.00,3481.52
1016.00,3479.46
1015.00,3483.92
1014.00,3488.64
1013.00,3488.35
1012.00,3484.17
1011.00,3481.13
1010.00,3481.07
1009.00,3479.69
1008.00,3472.04
1007.00,3459.99
1006.00,3450.85
1005.00,3448.34
1004.00,3448.25
1003.00,3444.95
1002.00,3438.84
1001.00,3434.30
1000.00,3432.60
999.00,3430.97
998.00,3427.59
997.00,3423.91
996.00,3422.26
995.00,3424.28
994.00,3431.06
993.00,3441.28
992.00,3449.68
991.00,3451.07
990.00,3446.13
989.00,3439.81
988.00,3434.06
987.00,3426.32
986.00,3415.89
985.00,3406.96
984.00,3402.99
983.00,3401.91
982.00,3400.03
981.00,3398.22
980.00,3400.87
979.00,3409.69
978.00,3420.57
977.00,3426.51
976.00,3422.73
975.00,3410.06
974.00,3394.25
973.00,3380.99
972.00,3371.55
971.00,3364.40
970.00,3359.94
969.00,3359.76
968.00,3360.95
967.00,3355.98
966.00,3341.39
965.00,3323.73
964.00,3312.93
963.00,3311.46
962.00,3312.93
961.00,3310.41
960.00,3302.83
959.00,3293.57
958.00,3286.08
957.00,3281.76
956.00,3279.91
955.00,3278.71
954.00,3277.09
953.00,3275.92
952.00,3276.14
951.00,3275.72
950.00,3269.72
949.00,3254.35
948.00,3231.03
947.00,3206.58
946.00,3188.90
945.00,3180.77
944.00,3177.23
943.00,3169.42
942.00,3152.40
941.00,3130.01
940.00,3112.59
939.00,3110.37
938.00,3127.62
937.00,3160.21
936.00,3197.64
935.00,3229.28
934.00,3250.78
933.00,3264.61
932.00,3274.33
931.00,3280.07
930.00,3280.42
929.00,3276.07
928.00,3269.04
927.00,3259.79
926.00,3248.04
925.00,3235.48
924.00,3225.29
923.00,3219.19
922.00,3216.57
921.00,3216.00
920.00,3215.57
919.00,3211.94
918.00,3201.68
917.00,3185.26
916.00,3168.28
915.00,3157.66
914.00,3156.60
913.00,3162.31
912.00,3167.56
911.00,3164.98
910.00,3152.43
909.00,3135.58
908.00,3123.73
907.00,3121.73
906.00,3126.07
905.00,3129.17
904.00,3126.79
903.00,3120.73
902.00,3115.75
901.00,3114.79
900.00,3116.41
899.00,3116.17
898.00,3110.98
897.00,3102.60
896.00,3095.89
895.00,3092.69
894.00,3088.67
893.00,3078.30
892.00,3062.29
891.00,3048.18
890.00,3042.87
889.00,3046.29
888.00,3052.99
887.00,3057.77
886.00,3058.57
885.00,3055.02
884.00,3047.12
883.00,3036.74
882.00,3028.93
881.00,3029.28
880.00,3039.07
879.00,3052.94
878.00,3062.27
877.00,3062.31
876.00,3055.90
875.00,3049.70
874.00,3047.33
873.00,3046.90
872.00,3044.89
871.00,3040.58
870.00,3035.48
869.00,3029.76
868.00,3021.43
867.00,3009.66
866.00,2997.53
865.00,2990.59
864.00,2992.25
863.00,3000.39
862.00,3008.51
861.00,3011.69
860.00,3011.47
859.00,3013.24
858.00,3018.19
857.00,3020.17
856.00,3013.01
855.00,2999.56
854.00,2990.01
853.00,2991.17
852.00,3000.16
851.00,3009.37
850.00,3014.36
849.00,3015.26
848.00,3013.25
847.00,3009.21
846.00,3004.48
845.00,3000.07
844.00,2995.18
843.00,2988.95
842.00,2983.54
841.00,2983.35
840.00,2990.36
839.00,3001.42
838.00,3010.98
837.00,3016.07
836.00,3017.98
835.00,3019.28
834.00,3020.19
833.00,3018.54
832.00,3013.74
831.00,3009.45
830.00,3009.58
829.00,3011.86
828.00,3009.36
827.00,3001.30
826.00,2998.23
825.00,3010.37
824.00,3032.14
823.00,3045.50
822.00,3039.93
821.00,3022.74
820.00,3007.88
819.00,3001.05
818.00,2998.77
817.00,2996.78
816.00,2995.31
815.00,2997.16
814.00,3003.76
813.00,3013.88
812.00,3024.51
811.00,3031.66
810.00,3031.14
809.00,3020.46
808.00,3001.39
807.00,2980.47
806.00,2965.46
805.00,2959.89
804.00,2961.55
803.00,2966.76
802.00,2974.90
801.00,2986.72
800.00,2999.23
799.00,3005.10
798.00,2998.84
797.00,2982.63
796.00,2965.26
795.00,2955.62
794.00,2956.53
793.00,2963.34
792.00,2968.28
791.00,2967.28
790.00,2963.14
789.00,2961.59
788.00,2964.54
787.00,2968.11
786.00,2966.99
785.00,2959.24
784.00,2947.62
783.00,2937.91
782.00,2935.19
781.00,2939.40
780.00,2944.21
779.00,2942.90
778.00,2935.42
777.00,2927.52
776.00,2922.64
775.00,2918.66
774.00,2914.02
773.00,2912.91
772.00,2920.15
771.00,2932.41
770.00,2939.49
769.00,2934.76
768.00,2920.94
767.00,2904.99
766.00,2891.24
765.00,2881.27
764.00,2876.75
763.00,2878.00
762.00,2881.17
761.00,2880.94
760.00,2876.64
759.00,2872.74
758.00,2872.52
757.00,2874.56
756.00,2876.89
755.00,2881.21
754.00,2889.49
753.00,2899.21
752.00,2906.41
751.00,2912.20
750.00,2920.80
749.00,2930.08
748.00,2929.22
747.00,2909.23
746.00,2874.00
745.00,2838.36
744.00,2816.68
743.00,2814.28
742.00,2825.95
741.00,2839.18
740.00,2841.31
739.00,2829.11
738.00,2811.70
737.00,2800.79
736.00,2800.14
735.00,2806.52
734.00,2818.57
733.00,2839.46
732.00,2869.69
731.00,2903.10
730.00,2933.06
729.00,2958.80
728.00,2981.82
727.00,2999.40
726.00,3006.98
725.00,3005.77
724.00,3003.98
723.00,3009.20
722.00,3022.12
721.00,3038.00
720.00,3052.26
719.00,3063.48
718.00,3072.06
717.00,3078.05
716.00,3080.90
715.00,3079.49
714.00,3071.64
713.00,3056.04
712.00,3037.16
711.00,3026.24
710.00,3032.93
709.00,3055.34
708.00,3082.15
707.00,3104.73
706.00,3123.10
705.00,3138.23
704.00,3145.09
703.00,3139.41
702.00,3127.44
701.00,3121.89
700.00,3129.23
699.00,3146.48
698.00,3169.01
697.00,3194.71
696.00,3220.83
695.00,3244.40
694.00,3266.88
693.00,3293.77
692.00,3328.51
691.00,3369.56
690.00,3413.32
689.00,3455.26
688.00,3490.08
687.00,3518.17
686.00,3548.77
685.00,3587.73
684.00,3623.89
683.00,3638.43
682.00,3628.46
681.00,3612.20
680.00,3609.37
679.00,3624.76
678.00,3652.41
677.00,3684.04
676.00,3710.85
675.00,3719.99
674.00,3707.89
673.00,3690.31
672.00,3685.27
671.00,3692.26
670.00,3694.61
669.00,3682.50
668.00,3671.88
667.00,3682.16
666.00,3694.56
665.00,3700.59
664.00,3706.03
663.00,3712.67
662.00,3710.53
661.00,3693.61
660.00,3671.72
659.00,3663.13
658.00,3674.34
657.00,3691.77
656.00,3698.84
655.00,3690.78
654.00,3677.15
653.00,3669.17
652.00,3667.29
651.00,3664.10
650.00,3654.36
