Created as New Dataset,
cm-1,ARB
4000.00,47.84
3999.00,47.88
3998.00,47.90
3997.00,47.89
3996.00,47.85
3995.00,47.81
3994.00,47.78
3993.00,47.76
3992.00,47.73
3991.00,47.68
3990.00,47.62
3989.00,47.58
3988.00,47.54
3987.00,47.53
3986.00,47.54
3985.00,47.54
3984.00,47.53
3983.00,47.49
3982.00,47.45
3981.00,47.44
3980.00,47.46
3979.00,47.49
3978.00,47.52
3977.00,47.56
3976.00,47.57
3975.00,47.56
3974.00,47.54
3973.00,47.54
3972.00,47.55
3971.00,47.57
3970.00,47.59
3969.00,47.61
3968.00,47.64
3967.00,47.67
3966.00,47.69
3965.00,47.70
3964.00,47.70
3963.00,47.69
3962.00,47.66
3961.00,47.63
3960.00,47.63
3959.00,47.67
3958.00,47.75
3957.00,47.83
3956.00,47.87
3955.00,47.88
3954.00,47.87
3953.00,47.86
3952.00,47.86
3951.00,47.85
3950.00,47.81
3949.00,47.74
3948.00,47.67
3947.00,47.63
3946.00,47.64
3945.00,47.70
3944.00,47.75
3943.00,47.74
3942.00,47.67
3941.00,47.60
3940.00,47.57
3939.00,47.56
3938.00,47.56
3937.00,47.54
3936.00,47.51
3935.00,47.47
3934.00,47.43
3933.00,47.37
3932.00,47.33
3931.00,47.31
3930.00,47.31
3929.00,47.30
3928.00,47.28
3927.00,47.27
3926.00,47.28
3925.00,47.28
3924.00,47.26
3923.00,47.23
3922.00,47.19
3921.00,47.15
3920.00,47.11
3919.00,47.07
3918.00,47.04
3917.00,47.02
3916.00,47.02
3915.00,47.04
3914.00,47.10
3913.00,47.15
3912.00,47.17
3911.00,47.16
3910.00,47.14
3909.00,47.14
3908.00,47.16
3907.00,47.21
3906.00,47.31
3905.00,47.43
3904.00,47.51
3903.00,47.51
3902.00,47.48
3901.00,47.45
3900.00,47.43
3899.00,47.38
3898.00,47.32
3897.00,47.27
3896.00,47.24
3895.00,47.23
3894.00,47.25
3893.00,47.29
3892.00,47.34
3891.00,47.34
3890.00,47.31
3889.00,47.29
3888.00,47.31
3887.00,47.34
3886.00,47.33
3885.00,47.32
3884.00,47.34
3883.00,47.41
3882.00,47.46
3881.00,47.43
3880.00,47.34
3879.00,47.26
3878.00,47.25
3877.00,47.31
3876.00,47.35
3875.00,47.33
3874.00,47.26
3873.00,47.24
3872.00,47.32
3871.00,47.45
3870.00,47.51
3869.00,47.47
3868.00,47.44
3867.00,47.52
3866.00,47.64
3865.00,47.68
3864.00,47.65
3863.00,47.65
3862.00,47.69
3861.00,47.73
3860.00,47.75
3859.00,47.73
3858.00,47.69
3857.00,47.60
3856.00,47.54
3855.00,47.54
3854.00,47.63
3853.00,47.75
3852.00,47.85
3851.00,47.92
3850.00,47.96
3849.00,47.94
3848.00,47.89
3847.00,47.86
3846.00,47.88
3845.00,47.91
3844.00,47.92
3843.00,47.92
3842.00,47.91
3841.00,47.91
3840.00,47.92
3839.00,47.93
3838.00,47.95
3837.00,47.95
3836.00,47.95
3835.00,47.93
3834.00,47.94
3833.00,47.97
3832.00,48.00
3831.00,48.00
3830.00,47.96
3829.00,47.92
3828.00,47.91
3827.00,47.90
3826.00,47.85
3825.00,47.77
3824.00,47.75
3823.00,47.80
3822.00,47.88
3821.00,47.90
3820.00,47.87
3819.00,47.86
3818.00,47.91
3817.00,47.94
3816.00,47.88
3815.00,47.80
3814.00,47.77
3813.00,47.79
3812.00,47.79
3811.00,47.77
3810.00,47.77
3809.00,47.87
3808.00,48.02
3807.00,48.12
3806.00,48.14
3805.00,48.15
3804.00,48.21
3803.00,48.31
3802.00,48.40
3801.00,48.45
3800.00,48.52
3799.00,48.62
3798.00,48.70
3797.00,48.70
3796.00,48.63
3795.00,48.57
3794.00,48.56
3793.00,48.58
3792.00,48.60
3791.00,48.61
3790.00,48.62
3789.00,48.64
3788.00,48.66
3787.00,48.69
3786.00,48.73
3785.00,48.75
3784.00,48.73
3783.00,48.68
3782.00,48.65
3781.00,48.65
3780.00,48.66
3779.00,48.67
3778.00,48.68
3777.00,48.71
3776.00,48.78
3775.00,48.84
3774.00,48.87
3773.00,48.90
3772.00,48.95
3771.00,48.99
3770.00,48.99
3769.00,48.97
3768.00,49.01
3767.00,49.10
3766.00,49.17
3765.00,49.18
3764.00,49.17
3763.00,49.17
3762.00,49.21
3761.00,49.24
3760.00,49.25
3759.00,49.27
3758.00,49.30
3757.00,49.30
3756.00,49.27
3755.00,49.25
3754.00,49.26
3753.00,49.28
3752.00,49.29
3751.00,49.34
3750.00,49.40
3749.00,49.40
3748.00,49.37
3747.00,49.38
3746.00,49.49
3745.00,49.59
3744.00,49.61
3743.00,49.60
3742.00,49.64
3741.00,49.69
3740.00,49.69
3739.00,49.64
3738.00,49.63
3737.00,49.66
3736.00,49.62
3735.00,49.53
3734.00,49.48
3733.00,49.51
3732.00,49.56
3731.00,49.58
3730.00,49.60
3729.00,49.63
3728.00,49.67
3727.00,49.66
3726.00,49.63
3725.00,49.63
3724.00,49.68
3723.00,49.72
3722.00,49.73
3721.00,49.71
3720.00,49.66
3719.00,49.61
3718.00,49.55
3717.00,49.50
3716.00,49.45
3715.00,49.42
3714.00,49.41
3713.00,49.41
3712.00,49.43
3711.00,49.45
3710.00,49.43
3709.00,49.36
3708.00,49.27
3707.00,49.21
3706.00,49.17
3705.00,49.15
3704.00,49.16
3703.00,49.18
3702.00,49.21
3701.00,49.21
3700.00,49.18
3699.00,49.16
3698.00,49.14
3697.00,49.11
3696.00,49.06
3695.00,49.04
3694.00,49.07
3693.00,49.11
3692.00,49.12
3691.00,49.14
3690.00,49.18
3689.00,49.20
3688.00,49.18
3687.00,49.12
3686.00,49.09
3685.00,49.09
3684.00,49.09
3683.00,49.07
3682.00,49.04
3681.00,48.98
3680.00,48.89
3679.00,48.81
3678.00,48.81
3677.00,48.86
3676.00,48.89
3675.00,48.84
3674.00,48.78
3673.00,48.82
3672.00,48.93
3671.00,48.99
3670.00,48.96
3669.00,48.88
3668.00,48.83
3667.00,48.82
3666.00,48.80
3665.00,48.77
3664.00,48.73
3663.00,48.71
3662.00,48.70
3661.00,48.67
3660.00,48.60
3659.00,48.53
3658.00,48.47
3657.00,48.41
3656.00,48.31
3655.00,48.22
3654.00,48.18
3653.00,48.20
3652.00,48.20
3651.00,48.15
3650.00,48.09
3649.00,48.07
3648.00,48.03
3647.00,47.94
3646.00,47.87
3645.00,47.87
3644.00,47.92
3643.00,47.94
3642.00,47.95
3641.00,47.97
3640.00,48.06
3639.00,48.19
3638.00,48.32
3637.00,48.45
3636.00,48.60
3635.00,48.71
3634.00,48.76
3633.00,48.76
3632.00,48.79
3631.00,48.88
3630.00,48.98
3629.00,49.00
3628.00,48.96
3627.00,48.93
3626.00,48.94
3625.00,48.94
3624.00,48.90
3623.00,48.83
3622.00,48.77
3621.00,48.75
3620.00,48.72
3619.00,48.63
3618.00,48.47
3617.00,48.29
3616.00,48.13
3615.00,47.98
3614.00,47.83
3613.00,47.65
3612.00,47.47
3611.00,47.34
3610.00,47.23
3609.00,47.13
3608.00,47.03
3607.00,46.96
3606.00,46.95
3605.00,46.99
3604.00,47.04
3603.00,47.10
3602.00,47.17
3601.00,47.28
3600.00,47.44
3599.00,47.68
3598.00,47.97
3597.00,48.27
3596.00,48.57
3595.00,48.85
3594.00,49.13
3593.00,49.42
3592.00,49.71
3591.00,50.00
3590.00,50.29
3589.00,50.55
3588.00,50.76
3587.00,50.94
3586.00,51.11
3585.00,51.26
3584.00,51.38
3583.00,51.46
3582.00,51.52
3581.00,51.58
3580.00,51.66
3579.00,51.77
3578.00,51.90
3577.00,52.02
3576.00,52.13
3575.00,52.20
3574.00,52.28
3573.00,52.37
3572.00,52.47
3571.00,52.58
3570.00,52.71
3569.00,52.88
3568.00,53.05
3567.00,53.18
3566.00,53.27
3565.00,53.31
3564.00,53.33
3563.00,53.36
3562.00,53.43
3561.00,53.52
3560.00,53.59
3559.00,53.65
3558.00,53.71
3557.00,53.79
3556.00,53.87
3555.00,53.97
3554.00,54.07
3553.00,54.17
3552.00,54.24
3551.00,54.27
3550.00,54.28
3549.00,54.30
3548.00,54.32
3547.00,54.36
3546.00,54.43
3545.00,54.53
3544.00,54.62
3543.00,54.65
3542.00,54.61
3541.00,54.56
3540.00,54.55
3539.00,54.61
3538.00,54.67
3537.00,54.71
3536.00,54.69
3535.00,54.67
3534.00,54.67
3533.00,54.72
3532.00,54.77
3531.00,54.81
3530.00,54.82
3529.00,54.82
3528.00,54.83
3527.00,54.85
3526.00,54.86
3525.00,54.86
3524.00,54.84
3523.00,54.81
3522.00,54.80
3521.00,54.80
3520.00,54.80
3519.00,54.79
3518.00,54.80
3517.00,54.81
3516.00,54.84
3515.00,54.87
3514.00,54.90
3513.00,54.94
3512.00,54.96
3511.00,54.96
3510.00,54.93
3509.00,54.90
3508.00,54.89
3507.00,54.87
3506.00,54.86
3505.00,54.83
3504.00,54.82
3503.00,54.84
3502.00,54.87
3501.00,54.88
3500.00,54.87
3499.00,54.84
3498.00,54.81
3497.00,54.77
3496.00,54.73
3495.00,54.71
3494.00,54.73
3493.00,54.74
3492.00,54.74
3491.00,54.72
3490.00,54.70
3489.00,54.69
3488.00,54.67
3487.00,54.64
3486.00,54.60
3485.00,54.58
3484.00,54.56
3483.00,54.56
3482.00,54.57
3481.00,54.57
3480.00,54.54
3479.00,54.47
3478.00,54.40
3477.00,54.34
3476.00,54.31
3475.00,54.29
3474.00,54.28
3473.00,54.26
3472.00,54.22
3471.00,54.17
3470.00,54.11
3469.00,54.04
3468.00,54.00
3467.00,53.97
3466.00,53.95
3465.00,53.92
3464.00,53.89
3463.00,53.87
3462.00,53.85
3461.00,53.81
3460.00,53.78
3459.00,53.75
3458.00,53.72
3457.00,53.69
3456.00,53.64
3455.00,53.58
3454.00,53.51
3453.00,53.44
3452.00,53.36
3451.00,53.28
3450.00,53.24
3449.00,53.25
3448.00,53.29
3447.00,53.33
3446.00,53.34
3445.00,53.31
3444.00,53.24
3443.00,53.15
3442.00,53.08
3441.00,53.04
3440.00,53.02
3439.00,52.99
3438.00,52.94
3437.00,52.87
3436.00,52.80
3435.00,52.74
3434.00,52.70
3433.00,52.68
3432.00,52.68
3431.00,52.72
3430.00,52.80
3429.00,52.89
3428.00,52.97
3427.00,53.03
3426.00,53.09
3425.00,53.16
3424.00,53.22
3423.00,53.24
3422.00,53.23
3421.00,53.21
3420.00,53.19
3419.00,53.15
3418.00,53.12
3417.00,53.10
3416.00,53.09
3415.00,53.09
3414.00,53.09
3413.00,53.10
3412.00,53.11
3411.00,53.14
3410.00,53.15
3409.00,53.15
3408.00,53.13
3407.00,53.12
3406.00,53.12
3405.00,53.13
3404.00,53.11
3403.00,53.05
3402.00,52.97
3401.00,52.90
3400.00,52.85
3399.00,52.81
3398.00,52.80
3397.00,52.80
3396.00,52.79
3395.00,52.76
3394.00,52.73
3393.00,52.70
3392.00,52.68
3391.00,52.66
3390.00,52.64
3389.00,52.61
3388.00,52.58
3387.00,52.55
3386.00,52.51
3385.00,52.45
3384.00,52.35
3383.00,52.24
3382.00,52.15
3381.00,52.07
3380.00,52.00
3379.00,51.93
3378.00,51.88
3377.00,51.85
3376.00,51.84
3375.00,51.81
3374.00,51.78
3373.00,51.75
3372.00,51.72
3371.00,51.70
3370.00,51.69
3369.00,51.68
3368.00,51.69
3367.00,51.71
3366.00,51.75
3365.00,51.80
3364.00,51.87
3363.00,51.94
3362.00,52.02
3361.00,52.08
3360.00,52.14
3359.00,52.19
3358.00,52.24
3357.00,52.31
3356.00,52.39
3355.00,52.47
3354.00,52.54
3353.00,52.62
3352.00,52.69
3351.00,52.76
3350.00,52.79
3349.00,52.81
3348.00,52.82
3347.00,52.85
3346.00,52.90
3345.00,52.96
3344.00,53.02
3343.00,53.06
3342.00,53.08
3341.00,53.11
3340.00,53.15
3339.00,53.19
3338.00,53.21
3337.00,53.22
3336.00,53.22
3335.00,53.22
3334.00,53.23
3333.00,53.24
3332.00,53.25
3331.00,53.29
3330.00,53.35
3329.00,53.40
3328.00,53.45
3327.00,53.49
3326.00,53.52
3325.00,53.53
3324.00,53.52
3323.00,53.47
3322.00,53.43
3321.00,53.42
3320.00,53.45
3319.00,53.50
3318.00,53.55
3317.00,53.59
3316.00,53.62
3315.00,53.65
3314.00,53.69
3313.00,53.73
3312.00,53.76
3311.00,53.78
3310.00,53.80
3309.00,53.82
3308.00,53.85
3307.00,53.86
3306.00,53.85
3305.00,53.82
3304.00,53.78
3303.00,53.78
3302.00,53.81
3301.00,53.85
3300.00,53.88
3299.00,53.88
3298.00,53.85
3297.00,53.83
3296.00,53.83
3295.00,53.85
3294.00,53.90
3293.00,53.94
3292.00,53.94
3291.00,53.91
3290.00,53.88
3289.00,53.86
3288.00,53.85
3287.00,53.85
3286.00,53.82
3285.00,53.80
3284.00,53.78
3283.00,53.78
3282.00,53.78
3281.00,53.79
3280.00,53.78
3279.00,53.74
3278.00,53.69
3277.00,53.64
3276.00,53.61
3275.00,53.62
3274.00,53.65
3273.00,53.69
3272.00,53.72
3271.00,53.74
3270.00,53.74
3269.00,53.74
3268.00,53.75
3267.00,53.77
3266.00,53.78
3265.00,53.79
3264.00,53.78
3263.00,53.75
3262.00,53.72
3261.00,53.71
3260.00,53.71
3259.00,53.72
3258.00,53.72
3257.00,53.72
3256.00,53.71
3255.00,53.70
3254.00,53.70
3253.00,53.71
3252.00,53.74
3251.00,53.76
3250.00,53.76
3249.00,53.75
3248.00,53.72
3247.00,53.68
3246.00,53.65
3245.00,53.63
3244.00,53.61
3243.00,53.57
3242.00,53.52
3241.00,53.45
3240.00,53.41
3239.00,53.40
3238.00,53.43
3237.00,53.46
3236.00,53.48
3235.00,53.47
3234.00,53.44
3233.00,53.42
3232.00,53.42
3231.00,53.44
3230.00,53.45
3229.00,53.43
3228.00,53.40
3227.00,53.37
3226.00,53.33
3225.00,53.30
3224.00,53.26
3223.00,53.22
3222.00,53.18
3221.00,53.15
3220.00,53.14
3219.00,53.15
3218.00,53.14
3217.00,53.10
3216.00,53.04
3215.00,52.96
3214.00,52.90
3213.00,52.85
3212.00,52.82
3211.00,52.82
3210.00,52.83
3209.00,52.84
3208.00,52.82
3207.00,52.77
3206.00,52.70
3205.00,52.63
3204.00,52.57
3203.00,52.53
3202.00,52.49
3201.00,52.45
3200.00,52.40
3199.00,52.35
3198.00,52.30
3197.00,52.23
3196.00,52.16
3195.00,52.12
3194.00,52.12
3193.00,52.15
3192.00,52.17
3191.00,52.15
3190.00,52.10
3189.00,52.04
3188.00,51.99
3187.00,51.94
3186.00,51.91
3185.00,51.88
3184.00,51.87
3183.00,51.86
3182.00,51.86
3181.00,51.85
3180.00,51.83
3179.00,51.80
3178.00,51.77
3177.00,51.76
3176.00,51.75
3175.00,51.74
3174.00,51.70
3173.00,51.64
3172.00,51.59
3171.00,51.55
3170.00,51.52
3169.00,51.49
3168.00,51.47
3167.00,51.43
3166.00,51.39
3165.00,51.34
3164.00,51.29
3163.00,51.24
3162.00,51.20
3161.00,51.16
3160.00,51.13
3159.00,51.08
3158.00,51.02
3157.00,50.95
3156.00,50.88
3155.00,50.82
3154.00,50.77
3153.00,50.75
3152.00,50.73
3151.00,50.70
3150.00,50.66
3149.00,50.62
3148.00,50.59
3147.00,50.55
3146.00,50.51
3145.00,50.47
3144.00,50.44
3143.00,50.41
3142.00,50.35
3141.00,50.29
3140.00,50.25
3139.00,50.24
3138.00,50.24
3137.00,50.22
3136.00,50.15
3135.00,50.05
3134.00,49.94
3133.00,49.84
3132.00,49.75
3131.00,49.66
3130.00,49.59
3129.00,49.53
3128.00,49.49
3127.00,49.46
3126.00,49.42
3125.00,49.34
3124.00,49.23
3123.00,49.10
3122.00,48.98
3121.00,48.86
3120.00,48.77
3119.00,48.71
3118.00,48.66
3117.00,48.60
3116.00,48.53
3115.00,48.45
3114.00,48.36
3113.00,48.28
3112.00,48.18
3111.00,48.10
3110.00,48.04
3109.00,47.99
3108.00,47.93
3107.00,47.85
3106.00,47.73
3105.00,47.59
3104.00,47.43
3103.00,47.28
3102.00,47.17
3101.00,47.09
3100.00,47.02
3099.00,46.94
3098.00,46.85
3097.00,46.76
3096.00,46.69
3095.00,46.63
3094.00,46.57
3093.00,46.52
3092.00,46.47
3091.00,46.43
3090.00,46.40
3089.00,46.39
3088.00,46.38
3087.00,46.37
3086.00,46.36
3085.00,46.33
3084.00,46.29
3083.00,46.23
3082.00,46.19
3081.00,46.20
3080.00,46.23
3079.00,46.27
3078.00,46.29
3077.00,46.29
3076.00,46.27
3075.00,46.24
3074.00,46.22
3073.00,46.22
3072.00,46.24
3071.00,46.27
3070.00,46.29
3069.00,46.30
3068.00,46.30
3067.00,46.30
3066.00,46.31
3065.00,46.32
3064.00,46.32
3063.00,46.30
3062.00,46.28
3061.00,46.25
3060.00,46.23
3059.00,46.21
3058.00,46.19
3057.00,46.18
3056.00,46.17
3055.00,46.18
3054.00,46.19
3053.00,46.19
3052.00,46.18
3051.00,46.15
3050.00,46.13
3049.00,46.13
3048.00,46.14
3047.00,46.15
3046.00,46.15
3045.00,46.12
3044.00,46.08
3043.00,46.04
3042.00,46.00
3041.00,45.98
3040.00,45.98
3039.00,46.01
3038.00,46.05
3037.00,46.09
3036.00,46.11
3035.00,46.12
3034.00,46.11
3033.00,46.10
3032.00,46.06
3031.00,46.01
3030.00,45.98
3029.00,45.97
3028.00,45.99
3027.00,46.01
3026.00,46.02
3025.00,46.00
3024.00,45.97
3023.00,45.95
3022.00,45.95
3021.00,45.97
3020.00,45.99
3019.00,46.01
3018.00,46.00
3017.00,45.99
3016.00,45.99
3015.00,45.99
3014.00,45.99
3013.00,45.96
3012.00,45.92
3011.00,45.91
3010.00,45.93
3009.00,45.97
3008.00,46.01
3007.00,46.04
3006.00,46.06
3005.00,46.05
3004.00,46.01
3003.00,45.96
3002.00,45.94
3001.00,45.94
3000.00,45.95
2999.00,45.94
2998.00,45.91
2997.00,45.91
2996.00,45.92
2995.00,45.94
2994.00,45.95
2993.00,45.94
2992.00,45.94
2991.00,45.94
2990.00,45.94
2989.00,45.92
2988.00,45.90
2987.00,45.87
2986.00,45.86
2985.00,45.86
2984.00,45.87
2983.00,45.87
2982.00,45.85
2981.00,45.81
2980.00,45.76
2979.00,45.74
2978.00,45.74
2977.00,45.78
2976.00,45.81
2975.00,45.83
2974.00,45.84
2973.00,45.85
2972.00,45.86
2971.00,45.86
2970.00,45.83
2969.00,45.81
2968.00,45.80
2967.00,45.80
2966.00,45.80
2965.00,45.78
2964.00,45.74
2963.00,45.69
2962.00,45.63
2961.00,45.60
2960.00,45.61
2959.00,45.64
2958.00,45.67
2957.00,45.69
2956.00,45.70
2955.00,45.71
2954.00,45.72
2953.00,45.71
2952.00,45.70
2951.00,45.71
2950.00,45.74
2949.00,45.75
2948.00,45.71
2947.00,45.62
2946.00,45.52
2945.00,45.47
2944.00,45.48
2943.00,45.52
2942.00,45.53
2941.00,45.50
2940.00,45.46
2939.00,45.42
2938.00,45.38
2937.00,45.35
2936.00,45.32
2935.00,45.32
2934.00,45.33
2933.00,45.36
2932.00,45.41
2931.00,45.47
2930.00,45.53
2929.00,45.58
2928.00,45.61
2927.00,45.63
2926.00,45.67
2925.00,45.72
2924.00,45.78
2923.00,45.85
2922.00,45.91
2921.00,45.96
2920.00,46.02
2919.00,46.09
2918.00,46.16
2917.00,46.21
2916.00,46.23
2915.00,46.23
2914.00,46.22
2913.00,46.19
2912.00,46.14
2911.00,46.09
2910.00,46.06
2909.00,46.04
2908.00,46.03
2907.00,46.01
2906.00,45.97
2905.00,45.93
2904.00,45.90
2903.00,45.90
2902.00,45.92
2901.00,45.94
2900.00,45.95
2899.00,45.95
2898.00,45.95
2897.00,45.94
2896.00,45.93
2895.00,45.93
2894.00,45.93
2893.00,45.92
2892.00,45.91
2891.00,45.89
2890.00,45.88
2889.00,45.87
2888.00,45.88
2887.00,45.89
2886.00,45.90
2885.00,45.91
2884.00,45.91
2883.00,45.91
2882.00,45.89
2881.00,45.87
2880.00,45.85
2879.00,45.87
2878.00,45.91
2877.00,45.93
2876.00,45.92
2875.00,45.90
2874.00,45.88
2873.00,45.88
2872.00,45.87
2871.00,45.86
2870.00,45.83
2869.00,45.80
2868.00,45.79
2867.00,45.78
2866.00,45.78
2865.00,45.78
2864.00,45.76
2863.00,45.75
2862.00,45.76
2861.00,45.77
2860.00,45.76
2859.00,45.73
2858.00,45.69
2857.00,45.66
2856.00,45.65
2855.00,45.64
2854.00,45.65
2853.00,45.67
2852.00,45.73
2851.00,45.82
2850.00,45.93
2849.00,46.01
2848.00,46.05
2847.00,46.06
2846.00,46.06
2845.00,46.05
2844.00,46.02
2843.00,45.98
2842.00,45.97
2841.00,45.96
2840.00,45.94
2839.00,45.92
2838.00,45.91
2837.00,45.91
2836.00,45.92
2835.00,45.95
2834.00,45.99
2833.00,46.03
2832.00,46.05
2831.00,46.04
2830.00,46.00
2829.00,45.97
2828.00,45.95
2827.00,45.94
2826.00,45.95
2825.00,45.98
2824.00,45.99
2823.00,45.99
2822.00,45.99
2821.00,46.00
2820.00,46.02
2819.00,46.02
2818.00,46.01
2817.00,45.98
2816.00,45.97
2815.00,45.96
2814.00,45.97
2813.00,45.98
2812.00,45.98
2811.00,45.97
2810.00,45.98
2809.00,46.00
2808.00,46.00
2807.00,45.98
2806.00,45.96
2805.00,45.97
2804.00,46.00
2803.00,46.04
2802.00,46.07
2801.00,46.08
2800.00,46.07
2799.00,46.05
2798.00,46.04
2797.00,46.03
2796.00,46.01
2795.00,45.99
2794.00,45.99
2793.00,46.01
2792.00,46.03
2791.00,46.03
2790.00,46.03
2789.00,46.02
2788.00,46.01
2787.00,45.99
2786.00,45.98
2785.00,45.99
2784.00,46.02
2783.00,46.04
2782.00,46.04
2781.00,46.02
2780.00,46.01
2779.00,46.00
2778.00,45.99
2777.00,45.96
2776.00,45.93
2775.00,45.92
2774.00,45.94
2773.00,45.99
2772.00,46.03
2771.00,46.05
2770.00,46.04
2769.00,46.02
2768.00,46.01
2767.00,46.00
2766.00,46.01
2765.00,46.02
2764.00,46.03
2763.00,46.03
2762.00,46.04
2761.00,46.04
2760.00,46.05
2759.00,46.03
2758.00,46.00
2757.00,45.99
2756.00,45.99
2755.00,46.00
2754.00,46.02
2753.00,46.03
2752.00,46.03
2751.00,46.01
2750.00,45.99
2749.00,45.98
2748.00,45.99
2747.00,46.00
2746.00,46.01
2745.00,46.00
2744.00,46.00
2743.00,45.99
2742.00,45.99
2741.00,45.99
2740.00,46.00
2739.00,46.01
2738.00,46.03
2737.00,46.06
2736.00,46.08
2735.00,46.07
2734.00,46.03
2733.00,45.99
2732.00,45.98
2731.00,45.99
2730.00,46.01
2729.00,46.00
2728.00,45.99
2727.00,45.98
2726.00,45.99
2725.00,45.99
2724.00,45.99
2723.00,45.99
2722.00,46.00
2721.00,46.00
2720.00,46.00
2719.00,46.00
2718.00,46.02
2717.00,46.03
2716.00,46.04
2715.00,46.04
2714.00,46.03
2713.00,46.02
2712.00,46.00
2711.00,45.99
2710.00,45.99
2709.00,46.01
2708.00,46.03
2707.00,46.04
2706.00,46.04
2705.00,46.05
2704.00,46.05
2703.00,46.06
2702.00,46.06
2701.00,46.04
2700.00,46.01
2699.00,45.98
2698.00,45.94
2697.00,45.92
2696.00,45.92
2695.00,45.95
2694.00,46.01
2693.00,46.07
2692.00,46.11
2691.00,46.12
2690.00,46.12
2689.00,46.11
2688.00,46.10
2687.00,46.09
2686.00,46.07
2685.00,46.06
2684.00,46.08
2683.00,46.11
2682.00,46.12
2681.00,46.11
2680.00,46.09
2679.00,46.07
2678.00,46.06
2677.00,46.06
2676.00,46.05
2675.00,46.02
2674.00,45.98
2673.00,45.95
2672.00,45.93
2671.00,45.96
2670.00,46.01
2669.00,46.07
2668.00,46.08
2667.00,46.05
2666.00,45.99
2665.00,45.94
2664.00,45.90
2663.00,45.88
2662.00,45.87
2661.00,45.87
2660.00,45.87
2659.00,45.88
2658.00,45.92
2657.00,45.96
2656.00,45.98
2655.00,45.99
2654.00,45.98
2653.00,45.98
2652.00,45.98
2651.00,45.97
2650.00,45.96
2649.00,45.94
2648.00,45.92
2647.00,45.91
2646.00,45.93
2645.00,45.97
2644.00,46.02
2643.00,46.05
2642.00,46.05
2641.00,46.04
2640.00,46.01
2639.00,45.98
2638.00,45.96
2637.00,45.95
2636.00,45.94
2635.00,45.94
2634.00,45.94
2633.00,45.96
2632.00,45.97
2631.00,45.97
2630.00,45.97
2629.00,45.96
2628.00,45.96
2627.00,45.97
2626.00,45.98
2625.00,46.01
2624.00,46.04
2623.00,46.07
2622.00,46.07
2621.00,46.05
2620.00,46.03
2619.00,46.03
2618.00,46.04
2617.00,46.05
2616.00,46.05
2615.00,46.05
2614.00,46.06
2613.00,46.08
2612.00,46.10
2611.00,46.10
2610.00,46.09
2609.00,46.06
2608.00,46.04
2607.00,46.04
2606.00,46.06
2605.00,46.11
2604.00,46.17
2603.00,46.21
2602.00,46.23
2601.00,46.24
2600.00,46.25
2599.00,46.24
2598.00,46.22
2597.00,46.21
2596.00,46.21
2595.00,46.23
2594.00,46.24
2593.00,46.24
2592.00,46.23
2591.00,46.23
2590.00,46.24
2589.00,46.26
2588.00,46.29
2587.00,46.33
2586.00,46.37
2585.00,46.41
2584.00,46.41
2583.00,46.41
2582.00,46.42
2581.00,46.46
2580.00,46.50
2579.00,46.53
2578.00,46.55
2577.00,46.57
2576.00,46.59
2575.00,46.61
2574.00,46.62
2573.00,46.63
2572.00,46.66
2571.00,46.70
2570.00,46.75
2569.00,46.80
2568.00,46.85
2567.00,46.88
2566.00,46.88
2565.00,46.88
2564.00,46.89
2563.00,46.91
2562.00,46.92
2561.00,46.91
2560.00,46.91
2559.00,46.91
2558.00,46.91
2557.00,46.90
2556.00,46.91
2555.00,46.92
2554.00,46.94
2553.00,46.96
2552.00,46.97
2551.00,46.97
2550.00,46.98
2549.00,47.01
2548.00,47.05
2547.00,47.11
2546.00,47.17
2545.00,47.25
2544.00,47.35
2543.00,47.45
2542.00,47.53
2541.00,47.60
2540.00,47.65
2539.00,47.68
2538.00,47.69
2537.00,47.68
2536.00,47.64
2535.00,47.59
2534.00,47.54
2533.00,47.48
2532.00,47.42
2531.00,47.40
2530.00,47.40
2529.00,47.42
2528.00,47.44
2527.00,47.42
2526.00,47.38
2525.00,47.36
2524.00,47.39
2523.00,47.48
2522.00,47.60
2521.00,47.73
2520.00,47.85
2519.00,47.95
2518.00,48.04
2517.00,48.10
2516.00,48.15
2515.00,48.21
2514.00,48.28
2513.00,48.34
2512.00,48.40
2511.00,48.45
2510.00,48.49
2509.00,48.54
2508.00,48.60
2507.00,48.66
2506.00,48.70
2505.00,48.74
2504.00,48.77
2503.00,48.80
2502.00,48.83
2501.00,48.86
2500.00,48.88
2499.00,48.90
2498.00,48.92
2497.00,48.96
2496.00,49.00
2495.00,49.04
2494.00,49.08
2493.00,49.10
2492.00,49.12
2491.00,49.13
2490.00,49.14
2489.00,49.16
2488.00,49.20
2487.00,49.24
2486.00,49.30
2485.00,49.35
2484.00,49.38
2483.00,49.39
2482.00,49.40
2481.00,49.40
2480.00,49.38
2479.00,49.34
2478.00,49.27
2477.00,49.19
2476.00,49.11
2475.00,49.07
2474.00,49.07
2473.00,49.12
2472.00,49.25
2471.00,49.47
2470.00,49.74
2469.00,50.01
2468.00,50.24
2467.00,50.41
2466.00,50.54
2465.00,50.65
2464.00,50.76
2463.00,50.86
2462.00,50.93
2461.00,50.98
2460.00,50.99
2459.00,51.01
2458.00,51.03
2457.00,51.06
2456.00,51.08
2455.00,51.11
2454.00,51.12
2453.00,51.13
2452.00,51.14
2451.00,51.14
2450.00,51.15
2449.00,51.17
2448.00,51.18
2447.00,51.18
2446.00,51.17
2445.00,51.16
2444.00,51.15
2443.00,51.14
2442.00,51.12
2441.00,51.09
2440.00,51.05
2439.00,50.99
2438.00,50.94
2437.00,50.87
2436.00,50.80
2435.00,50.75
2434.00,50.71
2433.00,50.67
2432.00,50.62
2431.00,50.54
2430.00,50.45
2429.00,50.37
2428.00,50.30
2427.00,50.23
2426.00,50.14
2425.00,50.01
2424.00,49.86
2423.00,49.72
2422.00,49.60
2421.00,49.52
2420.00,49.44
2419.00,49.36
2418.00,49.31
2417.00,49.31
2416.00,49.34
2415.00,49.41
2414.00,49.48
2413.00,49.56
2412.00,49.65
2411.00,49.74
2410.00,49.86
2409.00,49.97
2408.00,50.06
2407.00,50.12
2406.00,50.16
2405.00,50.20
2404.00,50.25
2403.00,50.29
2402.00,50.31
2401.00,50.32
2400.00,50.35
2399.00,50.41
2398.00,50.46
2397.00,50.48
2396.00,50.48
2395.00,50.48
2394.00,50.49
2393.00,50.52
2392.00,50.53
2391.00,50.53
2390.00,50.51
2389.00,50.48
2388.00,50.45
2387.00,50.40
2386.00,50.32
2385.00,50.23
2384.00,50.13
2383.00,50.03
2382.00,49.92
2381.00,49.79
2380.00,49.64
2379.00,49.53
2378.00,49.46
2377.00,49.47
2376.00,49.51
2375.00,49.55
2374.00,49.56
2373.00,49.52
2372.00,49.44
2371.00,49.33
2370.00,49.20
2369.00,49.07
2368.00,48.94
2367.00,48.86
2366.00,48.79
2365.00,48.70
2364.00,48.61
2363.00,48.53
2362.00,48.48
2361.00,48.48
2360.00,48.48
2359.00,48.47
2358.00,48.43
2357.00,48.35
2356.00,48.25
2355.00,48.10
2354.00,47.94
2353.00,47.84
2352.00,47.87
2351.00,48.04
2350.00,48.12
2349.00,47.94
2348.00,47.43
2347.00,46.79
2346.00,46.35
2345.00,46.25
2344.00,46.43
2343.00,46.65
2342.00,46.80
2341.00,46.86
2340.00,46.83
2339.00,46.77
2338.00,46.73
2337.00,46.73
2336.00,46.72
2335.00,46.70
2334.00,46.62
2333.00,46.54
2332.00,46.45
2331.00,46.40
2330.00,46.36
2329.00,46.39
2328.00,46.46
2327.00,46.54
2326.00,46.59
2325.00,46.60
2324.00,46.62
2323.00,46.66
2322.00,46.75
2321.00,46.86
2320.00,46.96
2319.00,47.07
2318.00,47.16
2317.00,47.24
2316.00,47.29
2315.00,47.30
2314.00,47.27
2313.00,47.25
2312.00,47.26
2311.00,47.34
2310.00,47.44
2309.00,47.57
2308.00,47.68
2307.00,47.78
2306.00,47.88
2305.00,48.00
2304.00,48.11
2303.00,48.20
2302.00,48.27
2301.00,48.32
2300.00,48.38
2299.00,48.43
2298.00,48.49
2297.00,48.57
2296.00,48.66
2295.00,48.75
2294.00,48.85
2293.00,48.94
2292.00,49.02
2291.00,49.08
2290.00,49.11
2289.00,49.12
2288.00,49.13
2287.00,49.12
2286.00,49.11
2285.00,49.11
2284.00,49.14
2283.00,49.18
2282.00,49.23
2281.00,49.27
2280.00,49.29
2279.00,49.28
2278.00,49.25
2277.00,49.22
2276.00,49.21
2275.00,49.26
2274.00,49.35
2273.00,49.47
2272.00,49.63
2271.00,49.81
2270.00,50.00
2269.00,50.17
2268.00,50.32
2267.00,50.43
2266.00,50.52
2265.00,50.59
2264.00,50.66
2263.00,50.74
2262.00,50.82
2261.00,50.90
2260.00,50.95
2259.00,50.98
2258.00,50.97
2257.00,50.96
2256.00,50.94
2255.00,50.93
2254.00,50.93
2253.00,50.94
2252.00,50.94
2251.00,50.91
2250.00,50.84
2249.00,50.77
2248.00,50.70
2247.00,50.64
2246.00,50.58
2245.00,50.52
2244.00,50.48
2243.00,50.46
2242.00,50.49
2241.00,50.62
2240.00,50.83
2239.00,51.11
2238.00,51.42
2237.00,51.73
2236.00,52.03
2235.00,52.29
2234.00,52.48
2233.00,52.62
2232.00,52.72
2231.00,52.77
2230.00,52.77
2229.00,52.74
2228.00,52.70
2227.00,52.64
2226.00,52.57
2225.00,52.48
2224.00,52.41
2223.00,52.35
2222.00,52.32
2221.00,52.33
2220.00,52.37
2219.00,52.43
2218.00,52.50
2217.00,52.58
2216.00,52.68
2215.00,52.79
2214.00,52.87
2213.00,52.94
2212.00,52.97
2211.00,52.99
2210.00,52.98
2209.00,52.98
2208.00,52.98
2207.00,53.00
2206.00,52.99
2205.00,52.97
2204.00,52.95
2203.00,52.94
2202.00,52.94
2201.00,52.93
2200.00,52.92
2199.00,52.92
2198.00,52.92
2197.00,52.90
2196.00,52.86
2195.00,52.82
2194.00,52.80
2193.00,52.79
2192.00,52.78
2191.00,52.76
2190.00,52.73
2189.00,52.71
2188.00,52.70
2187.00,52.71
2186.00,52.71
2185.00,52.72
2184.00,52.73
2183.00,52.75
2182.00,52.77
2181.00,52.79
2180.00,52.79
2179.00,52.79
2178.00,52.79
2177.00,52.78
2176.00,52.78
2175.00,52.78
2174.00,52.80
2173.00,52.81
2172.00,52.79
2171.00,52.74
2170.00,52.67
2169.00,52.62
2168.00,52.58
2167.00,52.55
2166.00,52.50
2165.00,52.44
2164.00,52.39
2163.00,52.34
2162.00,52.27
2161.00,52.18
2160.00,52.07
2159.00,51.96
2158.00,51.87
2157.00,51.80
2156.00,51.75
2155.00,51.70
2154.00,51.63
2153.00,51.56
2152.00,51.51
2151.00,51.48
2150.00,51.46
2149.00,51.45
2148.00,51.46
2147.00,51.50
2146.00,51.56
2145.00,51.61
2144.00,51.67
2143.00,51.76
2142.00,51.88
2141.00,52.02
2140.00,52.17
2139.00,52.30
2138.00,52.45
2137.00,52.60
2136.00,52.77
2135.00,52.94
2134.00,53.09
2133.00,53.23
2132.00,53.36
2131.00,53.48
2130.00,53.58
2129.00,53.68
2128.00,53.78
2127.00,53.86
2126.00,53.93
2125.00,53.97
2124.00,54.02
2123.00,54.06
2122.00,54.13
2121.00,54.19
2120.00,54.24
2119.00,54.27
2118.00,54.28
2117.00,54.29
2116.00,54.29
2115.00,54.28
2114.00,54.27
2113.00,54.27
2112.00,54.28
2111.00,54.29
2110.00,54.31
2109.00,54.33
2108.00,54.34
2107.00,54.32
2106.00,54.30
2105.00,54.28
2104.00,54.28
2103.00,54.29
2102.00,54.29
2101.00,54.27
2100.00,54.25
2099.00,54.23
2098.00,54.22
2097.00,54.23
2096.00,54.23
2095.00,54.22
2094.00,54.18
2093.00,54.13
2092.00,54.10
2091.00,54.09
2090.00,54.08
2089.00,54.08
2088.00,54.05
2087.00,54.00
2086.00,53.92
2085.00,53.84
2084.00,53.78
2083.00,53.74
2082.00,53.70
2081.00,53.66
2080.00,53.60
2079.00,53.55
2078.00,53.49
2077.00,53.44
2076.00,53.40
2075.00,53.37
2074.00,53.35
2073.00,53.34
2072.00,53.31
2071.00,53.27
2070.00,53.20
2069.00,53.12
2068.00,53.06
2067.00,52.99
2066.00,52.92
2065.00,52.85
2064.00,52.77
2063.00,52.70
2062.00,52.65
2061.00,52.61
2060.00,52.55
2059.00,52.48
2058.00,52.38
2057.00,52.27
2056.00,52.16
2055.00,52.07
2054.00,51.99
2053.00,51.92
2052.00,51.84
2051.00,51.75
2050.00,51.64
2049.00,51.52
2048.00,51.39
2047.00,51.28
2046.00,51.19
2045.00,51.11
2044.00,51.01
2043.00,50.89
2042.00,50.77
2041.00,50.66
2040.00,50.54
2039.00,50.42
2038.00,50.28
2037.00,50.15
2036.00,50.01
2035.00,49.88
2034.00,49.76
2033.00,49.65
2032.00,49.55
2031.00,49.44
2030.00,49.32
2029.00,49.19
2028.00,49.03
2027.00,48.87
2026.00,48.71
2025.00,48.57
2024.00,48.45
2023.00,48.35
2022.00,48.24
2021.00,48.15
2020.00,48.08
2019.00,48.06
2018.00,48.11
2017.00,48.22
2016.00,48.40
2015.00,48.64
2014.00,48.94
2013.00,49.28
2012.00,49.65
2011.00,50.02
2010.00,50.39
2009.00,50.76
2008.00,51.12
2007.00,51.47
2006.00,51.80
2005.00,52.09
2004.00,52.34
2003.00,52.55
2002.00,52.72
2001.00,52.88
2000.00,53.03
1999.00,53.16
1998.00,53.28
1997.00,53.40
1996.00,53.51
1995.00,53.62
1994.00,53.72
1993.00,53.80
1992.00,53.83
1991.00,53.85
1990.00,53.86
1989.00,53.89
1988.00,53.94
1987.00,53.99
1986.00,54.02
1985.00,54.04
1984.00,54.04
1983.00,54.03
1982.00,54.01
1981.00,54.00
1980.00,53.97
1979.00,53.95
1978.00,53.94
1977.00,53.94
1976.00,53.94
1975.00,53.91
1974.00,53.86
1973.00,53.82
1972.00,53.79
1971.00,53.75
1970.00,53.69
1969.00,53.63
1968.00,53.55
1967.00,53.47
1966.00,53.39
1965.00,53.33
1964.00,53.29
1963.00,53.25
1962.00,53.21
1961.00,53.17
1960.00,53.14
1959.00,53.13
1958.00,53.13
1957.00,53.14
1956.00,53.18
1955.00,53.21
1954.00,53.22
1953.00,53.20
1952.00,53.16
1951.00,53.12
1950.00,53.10
1949.00,53.09
1948.00,53.10
1947.00,53.10
1946.00,53.09
1945.00,53.08
1944.00,53.08
1943.00,53.08
1942.00,53.07
1941.00,53.06
1940.00,53.05
1939.00,53.04
1938.00,53.04
1937.00,53.05
1936.00,53.07
1935.00,53.08
1934.00,53.06
1933.00,53.02
1932.00,52.95
1931.00,52.88
1930.00,52.80
1929.00,52.74
1928.00,52.70
1927.00,52.65
1926.00,52.57
1925.00,52.48
1924.00,52.39
1923.00,52.33
1922.00,52.26
1921.00,52.21
1920.00,52.16
1919.00,52.11
1918.00,52.05
1917.00,51.96
1916.00,51.86
1915.00,51.75
1914.00,51.63
1913.00,51.52
1912.00,51.41
1911.00,51.28
1910.00,51.14
1909.00,50.98
1908.00,50.82
1907.00,50.65
1906.00,50.46
1905.00,50.26
1904.00,50.07
1903.00,49.90
1902.00,49.74
1901.00,49.60
1900.00,49.49
1899.00,49.42
1898.00,49.37
1897.00,49.35
1896.00,49.36
1895.00,49.40
1894.00,49.51
1893.00,49.70
1892.00,49.99
1891.00,50.35
1890.00,50.77
1889.00,51.20
1888.00,51.64
1887.00,52.05
1886.00,52.42
1885.00,52.76
1884.00,53.06
1883.00,53.32
1882.00,53.52
1881.00,53.70
1880.00,53.86
1879.00,54.03
1878.00,54.18
1877.00,54.31
1876.00,54.42
1875.00,54.51
1874.00,54.61
1873.00,54.69
1872.00,54.79
1871.00,54.90
1870.00,55.01
1869.00,55.11
1868.00,55.20
1867.00,55.28
1866.00,55.34
1865.00,55.40
1864.00,55.46
1863.00,55.52
1862.00,55.56
1861.00,55.60
1860.00,55.66
1859.00,55.74
1858.00,55.81
1857.00,55.86
1856.00,55.91
1855.00,55.94
1854.00,55.96
1853.00,55.97
1852.00,56.00
1851.00,56.03
1850.00,56.05
1849.00,56.06
1848.00,56.03
1847.00,55.98
1846.00,55.96
1845.00,55.99
1844.00,56.06
1843.00,56.10
1842.00,56.07
1841.00,56.01
1840.00,55.96
1839.00,55.90
1838.00,55.82
1837.00,55.73
1836.00,55.66
1835.00,55.60
1834.00,55.53
1833.00,55.43
1832.00,55.28
1831.00,55.12
1830.00,54.93
1829.00,54.72
1828.00,54.48
1827.00,54.20
1826.00,53.89
1825.00,53.53
1824.00,53.17
1823.00,52.87
1822.00,52.64
1821.00,52.50
1820.00,52.44
1819.00,52.46
1818.00,52.52
1817.00,52.60
1816.00,52.73
1815.00,52.89
1814.00,53.07
1813.00,53.24
1812.00,53.39
1811.00,53.53
1810.00,53.67
1809.00,53.79
1808.00,53.91
1807.00,54.03
1806.00,54.11
1805.00,54.15
1804.00,54.18
1803.00,54.21
1802.00,54.25
1801.00,54.28
1800.00,54.32
1799.00,54.38
1798.00,54.45
1797.00,54.50
1796.00,54.51
1795.00,54.52
1794.00,54.54
1793.00,54.60
1792.00,54.68
1791.00,54.76
1790.00,54.81
1789.00,54.81
1788.00,54.83
1787.00,54.88
1786.00,54.94
1785.00,54.98
1784.00,55.00
1783.00,54.99
1782.00,54.97
1781.00,54.96
1780.00,54.95
1779.00,54.96
1778.00,54.96
1777.00,54.95
1776.00,54.89
1775.00,54.79
1774.00,54.69
1773.00,54.63
1772.00,54.62
1771.00,54.64
1770.00,54.66
1769.00,54.65
1768.00,54.61
1767.00,54.53
1766.00,54.45
1765.00,54.37
1764.00,54.34
1763.00,54.34
1762.00,54.30
1761.00,54.19
1760.00,54.01
1759.00,53.81
1758.00,53.63
1757.00,53.46
1756.00,53.28
1755.00,53.08
1754.00,52.88
1753.00,52.69
1752.00,52.48
1751.00,52.26
1750.00,52.05
1749.00,51.87
1748.00,51.74
1747.00,51.69
1746.00,51.69
1745.00,51.72
1744.00,51.74
1743.00,51.78
1742.00,51.83
1741.00,51.91
1740.00,51.99
1739.00,52.07
1738.00,52.14
1737.00,52.21
1736.00,52.35
1735.00,52.55
1734.00,52.77
1733.00,52.95
1732.00,53.04
1731.00,53.08
1730.00,53.12
1729.00,53.17
1728.00,53.21
1727.00,53.26
1726.00,53.33
1725.00,53.41
1724.00,53.49
1723.00,53.54
1722.00,53.54
1721.00,53.51
1720.00,53.48
1719.00,53.49
1718.00,53.51
1717.00,53.52
1716.00,53.54
1715.00,53.57
1714.00,53.57
1713.00,53.58
1712.00,53.64
1711.00,53.72
1710.00,53.78
1709.00,53.79
1708.00,53.77
1707.00,53.74
1706.00,53.70
1705.00,53.68
1704.00,53.69
1703.00,53.74
1702.00,53.81
1701.00,53.83
1700.00,53.79
1699.00,53.74
1698.00,53.69
1697.00,53.71
1696.00,53.83
1695.00,53.98
1694.00,54.03
1693.00,53.99
1692.00,53.95
1691.00,53.96
1690.00,54.01
1689.00,54.04
1688.00,54.04
1687.00,54.02
1686.00,54.00
1685.00,54.02
1684.00,54.06
1683.00,54.10
1682.00,54.10
1681.00,54.07
1680.00,54.02
1679.00,53.97
1678.00,53.94
1677.00,53.94
1676.00,53.96
1675.00,53.95
1674.00,53.90
1673.00,53.81
1672.00,53.72
1671.00,53.66
1670.00,53.64
1669.00,53.66
1668.00,53.67
1667.00,53.65
1666.00,53.61
1665.00,53.58
1664.00,53.55
1663.00,53.52
1662.00,53.48
1661.00,53.43
1660.00,53.36
1659.00,53.26
1658.00,53.11
1657.00,52.95
1656.00,52.78
1655.00,52.62
1654.00,52.45
1653.00,52.28
1652.00,52.17
1651.00,51.97
1650.00,51.70
1649.00,51.37
1648.00,50.97
1647.00,50.50
1646.00,50.04
1645.00,49.65
1644.00,49.32
1643.00,49.06
1642.00,48.89
1641.00,48.83
1640.00,48.90
1639.00,49.10
1638.00,49.38
1637.00,49.69
1636.00,49.97
1635.00,50.22
1634.00,50.42
1633.00,50.53
1632.00,50.58
1631.00,50.60
1630.00,50.61
1629.00,50.61
1628.00,50.63
1627.00,50.67
1626.00,50.74
1625.00,50.79
1624.00,50.83
1623.00,50.84
1622.00,50.84
1621.00,50.84
1620.00,50.82
1619.00,50.80
1618.00,50.78
1617.00,50.79
1616.00,50.80
1615.00,50.81
1614.00,50.82
1613.00,50.85
1612.00,50.86
1611.00,50.82
1610.00,50.74
1609.00,50.66
1608.00,50.59
1607.00,50.51
1606.00,50.45
1605.00,50.40
1604.00,50.36
1603.00,50.31
1602.00,50.27
1601.00,50.24
1600.00,50.23
1599.00,50.21
1598.00,50.17
1597.00,50.12
1596.00,50.05
1595.00,49.97
1594.00,49.92
1593.00,49.90
1592.00,49.88
1591.00,49.86
1590.00,49.82
1589.00,49.79
1588.00,49.76
1587.00,49.74
1586.00,49.72
1585.00,49.72
1584.00,49.74
1583.00,49.79
1582.00,49.87
1581.00,49.96
1580.00,50.02
1579.00,50.04
1578.00,50.04
1577.00,50.04
1576.00,50.05
1575.00,50.06
1574.00,50.06
1573.00,50.06
1572.00,50.06
1571.00,50.03
1570.00,49.98
1569.00,49.96
1568.00,49.96
1567.00,49.97
1566.00,49.95
1565.00,49.89
1564.00,49.79
1563.00,49.71
1562.00,49.69
1561.00,49.71
1560.00,49.63
1559.00,49.41
1558.00,49.27
1557.00,49.25
1556.00,49.21
1555.00,49.13
1554.00,49.01
1553.00,48.90
1552.00,48.80
1551.00,48.71
1550.00,48.63
1549.00,48.55
1548.00,48.47
1547.00,48.41
1546.00,48.34
1545.00,48.25
1544.00,48.16
1543.00,48.09
1542.00,48.03
1541.00,47.96
1540.00,47.94
1539.00,48.00
1538.00,48.08
1537.00,48.11
1536.00,48.12
1535.00,48.12
1534.00,48.10
1533.00,48.06
1532.00,48.04
1531.00,48.05
1530.00,48.06
1529.00,48.09
1528.00,48.13
1527.00,48.20
1526.00,48.26
1525.00,48.30
1524.00,48.31
1523.00,48.28
1522.00,48.23
1521.00,48.17
1520.00,48.15
1519.00,48.12
1518.00,48.07
1517.00,47.99
1516.00,47.94
1515.00,47.94
1514.00,47.93
1513.00,47.87
1512.00,47.78
1511.00,47.70
1510.00,47.66
1509.00,47.61
1508.00,47.52
1507.00,47.41
1506.00,47.36
1505.00,47.33
1504.00,47.28
1503.00,47.24
1502.00,47.22
1501.00,47.18
1500.00,47.14
1499.00,47.12
1498.00,47.10
1497.00,47.04
1496.00,46.94
1495.00,46.84
1494.00,46.76
1493.00,46.70
1492.00,46.64
1491.00,46.57
1490.00,46.50
1489.00,46.45
1488.00,46.46
1487.00,46.48
1486.00,46.49
1485.00,46.48
1484.00,46.49
1483.00,46.50
1482.00,46.50
1481.00,46.47
1480.00,46.44
1479.00,46.43
1478.00,46.41
1477.00,46.37
1476.00,46.33
1475.00,46.32
1474.00,46.34
1473.00,46.35
1472.00,46.37
1471.00,46.39
1470.00,46.41
1469.00,46.41
1468.00,46.41
1467.00,46.42
1466.00,46.44
1465.00,46.47
1464.00,46.51
1463.00,46.55
1462.00,46.59
1461.00,46.60
1460.00,46.60
1459.00,46.63
1458.00,46.67
1457.00,46.71
1456.00,46.71
1455.00,46.69
1454.00,46.70
1453.00,46.72
1452.00,46.74
1451.00,46.72
1450.00,46.69
1449.00,46.65
1448.00,46.62
1447.00,46.61
1446.00,46.63
1445.00,46.64
1444.00,46.65
1443.00,46.67
1442.00,46.70
1441.00,46.71
1440.00,46.71
1439.00,46.72
1438.00,46.74
1437.00,46.73
1436.00,46.69
1435.00,46.68
1434.00,46.68
1433.00,46.69
1432.00,46.69
1431.00,46.71
1430.00,46.75
1429.00,46.77
1428.00,46.79
1427.00,46.83
1426.00,46.92
1425.00,47.02
1424.00,47.09
1423.00,47.15
1422.00,47.23
1421.00,47.33
1420.00,47.43
1419.00,47.52
1418.00,47.62
1417.00,47.68
1416.00,47.70
1415.00,47.74
1414.00,47.81
1413.00,47.89
1412.00,47.96
1411.00,48.04
1410.00,48.15
1409.00,48.26
1408.00,48.33
1407.00,48.34
1406.00,48.33
1405.00,48.31
1404.00,48.26
1403.00,48.20
1402.00,48.14
1401.00,48.10
1400.00,48.09
1399.00,48.12
1398.00,48.19
1397.00,48.28
1396.00,48.36
1395.00,48.40
1394.00,48.43
1393.00,48.42
1392.00,48.38
1391.00,48.34
1390.00,48.33
1389.00,48.34
1388.00,48.32
1387.00,48.28
1386.00,48.20
1385.00,48.09
1384.00,47.94
1383.00,47.76
1382.00,47.57
1381.00,47.40
1380.00,47.25
1379.00,47.12
1378.00,47.02
1377.00,46.95
1376.00,46.90
1375.00,46.86
1374.00,46.82
1373.00,46.80
1372.00,46.82
1371.00,46.86
1370.00,46.90
1369.00,46.93
1368.00,46.93
1367.00,46.93
1366.00,46.95
1365.00,46.99
1364.00,47.00
1363.00,46.98
1362.00,46.97
1361.00,46.98
1360.00,47.01
1359.00,47.03
1358.00,47.04
1357.00,47.04
1356.00,47.04
1355.00,47.04
1354.00,47.05
1353.00,47.05
1352.00,47.06
1351.00,47.06
1350.00,47.06
1349.00,47.06
1348.00,47.08
1347.00,47.11
1346.00,47.14
1345.00,47.16
1344.00,47.17
1343.00,47.19
1342.00,47.25
1341.00,47.33
1340.00,47.41
1339.00,47.49
1338.00,47.58
1337.00,47.68
1336.00,47.78
1335.00,47.89
1334.00,47.98
1333.00,48.06
1332.00,48.13
1331.00,48.20
1330.00,48.23
1329.00,48.22
1328.00,48.16
1327.00,48.08
1326.00,48.03
1325.00,48.00
1324.00,47.97
1323.00,47.92
1322.00,47.84
1321.00,47.73
1320.00,47.61
1319.00,47.50
1318.00,47.42
1317.00,47.38
1316.00,47.34
1315.00,47.30
1314.00,47.28
1313.00,47.25
1312.00,47.21
1311.00,47.15
1310.00,47.09
1309.00,47.06
1308.00,47.04
1307.00,47.05
1306.00,47.06
1305.00,47.06
1304.00,47.04
1303.00,47.01
1302.00,46.98
1301.00,46.99
1300.00,47.01
1299.00,47.05
1298.00,47.09
1297.00,47.13
1296.00,47.17
1295.00,47.20
1294.00,47.22
1293.00,47.25
1292.00,47.27
1291.00,47.30
1290.00,47.33
1289.00,47.36
1288.00,47.38
1287.00,47.39
1286.00,47.41
1285.00,47.45
1284.00,47.51
1283.00,47.57
1282.00,47.63
1281.00,47.68
1280.00,47.70
1279.00,47.72
1278.00,47.72
1277.00,47.73
1276.00,47.73
1275.00,47.72
1274.00,47.70
1273.00,47.68
1272.00,47.67
1271.00,47.68
1270.00,47.71
1269.00,47.76
1268.00,47.81
1267.00,47.86
1266.00,47.92
1265.00,47.97
1264.00,47.99
1263.00,47.98
1262.00,47.96
1261.00,47.97
1260.00,48.00
1259.00,48.03
1258.00,48.05
1257.00,48.07
1256.00,48.09
1255.00,48.12
1254.00,48.17
1253.00,48.21
1252.00,48.25
1251.00,48.28
1250.00,48.31
1249.00,48.35
1248.00,48.39
1247.00,48.42
1246.00,48.46
1245.00,48.47
1244.00,48.47
1243.00,48.45
1242.00,48.45
1241.00,48.50
1240.00,48.58
1239.00,48.64
1238.00,48.66
1237.00,48.64
1236.00,48.62
1235.00,48.60
1234.00,48.60
1233.00,48.59
1232.00,48.60
1231.00,48.61
1230.00,48.65
1229.00,48.70
1228.00,48.75
1227.00,48.80
1226.00,48.84
1225.00,48.89
1224.00,48.96
1223.00,49.05
1222.00,49.14
1221.00,49.18
1220.00,49.16
1219.00,49.10
1218.00,49.05
1217.00,49.01
1216.00,48.96
1215.00,48.87
1214.00,48.78
1213.00,48.70
1212.00,48.67
1211.00,48.70
1210.00,48.75
1209.00,48.81
1208.00,48.87
1207.00,48.93
1206.00,49.00
1205.00,49.08
1204.00,49.16
1203.00,49.22
1202.00,49.25
1201.00,49.23
1200.00,49.19
1199.00,49.15
1198.00,49.12
1197.00,49.09
1196.00,49.03
1195.00,48.94
1194.00,48.87
1193.00,48.82
1192.00,48.80
1191.00,48.81
1190.00,48.83
1189.00,48.88
1188.00,48.95
1187.00,49.04
1186.00,49.15
1185.00,49.26
1184.00,49.33
1183.00,49.37
1182.00,49.40
1181.00,49.41
1180.00,49.35
1179.00,49.23
1178.00,49.09
1177.00,49.04
1176.00,49.13
1175.00,49.34
1174.00,49.60
1173.00,49.82
1172.00,49.95
1171.00,49.98
1170.00,49.96
1169.00,49.93
1168.00,49.92
1167.00,49.96
1166.00,50.02
1165.00,50.09
1164.00,50.13
1163.00,50.13
1162.00,50.08
1161.00,50.00
1160.00,49.92
1159.00,49.88
1158.00,49.89
1157.00,49.96
1156.00,50.04
1155.00,50.11
1154.00,50.19
1153.00,50.26
1152.00,50.31
1151.00,50.33
1150.00,50.32
1149.00,50.32
1148.00,50.35
1147.00,50.39
1146.00,50.43
1145.00,50.45
1144.00,50.41
1143.00,50.31
1142.00,50.16
1141.00,50.04
1140.00,49.98
1139.00,49.99
1138.00,50.01
1137.00,50.05
1136.00,50.10
1135.00,50.17
1134.00,50.24
1133.00,50.28
1132.00,50.30
1131.00,50.32
1130.00,50.38
1129.00,50.48
1128.00,50.59
1127.00,50.67
1126.00,50.68
1125.00,50.66
1124.00,50.66
1123.00,50.74
1122.00,50.87
1121.00,50.96
1120.00,50.95
1119.00,50.89
1118.00,50.85
1117.00,50.88
1116.00,50.95
1115.00,51.03
1114.00,51.07
1113.00,51.08
1112.00,51.09
1111.00,51.12
1110.00,51.21
1109.00,51.32
1108.00,51.39
1107.00,51.41
1106.00,51.40
1105.00,51.42
1104.00,51.46
1103.00,51.50
1102.00,51.52
1101.00,51.50
1100.00,51.46
1099.00,51.38
1098.00,51.25
1097.00,51.09
1096.00,50.91
1095.00,50.72
1094.00,50.56
1093.00,50.45
1092.00,50.39
1091.00,50.36
1090.00,50.32
1089.00,50.22
1088.00,50.05
1087.00,49.87
1086.00,49.70
1085.00,49.57
1084.00,49.47
1083.00,49.40
1082.00,49.35
1081.00,49.36
1080.00,49.44
1079.00,49.59
1078.00,49.77
1077.00,49.95
1076.00,50.10
1075.00,50.21
1074.00,50.33
1073.00,50.48
1072.00,50.66
1071.00,50.83
1070.00,50.94
1069.00,50.96
1068.00,50.92
1067.00,50.87
1066.00,50.83
1065.00,50.79
1064.00,50.75
1063.00,50.79
1062.00,50.93
1061.00,51.13
1060.00,51.31
1059.00,51.43
1058.00,51.50
1057.00,51.57
1056.00,51.65
1055.00,51.69
1054.00,51.65
1053.00,51.52
1052.00,51.35
1051.00,51.27
1050.00,51.37
1049.00,51.60
1048.00,51.86
1047.00,52.09
1046.00,52.27
1045.00,52.45
1044.00,52.62
1043.00,52.77
1042.00,52.88
1041.00,52.95
1040.00,53.02
1039.00,53.10
1038.00,53.17
1037.00,53.19
1036.00,53.16
1035.00,53.10
1034.00,53.10
1033.00,53.16
1032.00,53.26
1031.00,53.36
1030.00,53.43
1029.00,53.46
1028.00,53.47
1027.00,53.48
1026.00,53.53
1025.00,53.61
1024.00,53.67
1023.00,53.71
1022.00,53.74
1021.00,53.79
1020.00,53.86
1019.00,53.95
1018.00,54.03
1017.00,54.09
1016.00,54.12
1015.00,54.14
1014.00,54.16
1013.00,54.18
1012.00,54.16
1011.00,54.10
1010.00,54.00
1009.00,53.90
1008.00,53.83
1007.00,53.83
1006.00,53.87
1005.00,53.89
1004.00,53.80
1003.00,53.64
1002.00,53.45
1001.00,53.28
1000.00,53.12
999.00,52.90
998.00,52.60
997.00,52.20
996.00,51.75
995.00,51.32
994.00,50.97
993.00,50.72
992.00,50.57
991.00,50.55
990.00,50.72
989.00,51.04
988.00,51.44
987.00,51.84
986.00,52.24
985.00,52.63
984.00,53.00
983.00,53.33
982.00,53.61
981.00,53.82
980.00,53.98
979.00,54.05
978.00,54.06
977.00,54.02
976.00,53.95
975.00,53.86
974.00,53.77
973.00,53.69
972.00,53.64
971.00,53.61
970.00,53.56
969.00,53.46
968.00,53.30
967.00,53.10
966.00,52.94
965.00,52.87
964.00,52.91
963.00,53.06
962.00,53.33
961.00,53.65
960.00,53.97
959.00,54.20
958.00,54.36
957.00,54.46
956.00,54.53
955.00,54.57
954.00,54.62
953.00,54.68
952.00,54.74
951.00,54.80
950.00,54.86
949.00,54.92
948.00,54.98
947.00,55.02
946.00,55.07
945.00,55.12
944.00,55.13
943.00,55.09
942.00,55.00
941.00,54.91
940.00,54.82
939.00,54.73
938.00,54.63
937.00,54.54
936.00,54.45
935.00,54.35
934.00,54.24
933.00,54.14
932.00,54.08
931.00,54.06
930.00,54.03
929.00,53.95
928.00,53.83
927.00,53.71
926.00,53.62
925.00,53.56
924.00,53.49
923.00,53.38
922.00,53.24
921.00,53.04
920.00,52.78
919.00,52.47
918.00,52.14
917.00,51.81
916.00,51.41
915.00,50.89
914.00,50.28
913.00,49.66
912.00,49.13
911.00,48.70
910.00,48.41
909.00,48.24
908.00,48.20
907.00,48.33
906.00,48.63
905.00,49.03
904.00,49.47
903.00,49.89
902.00,50.33
901.00,50.79
900.00,51.26
899.00,51.65
898.00,51.95
897.00,52.14
896.00,52.22
895.00,52.16
894.00,52.03
893.00,51.94
892.00,51.93
891.00,51.98
890.00,52.00
889.00,51.98
888.00,51.95
887.00,51.91
886.00,51.88
885.00,51.86
884.00,51.89
883.00,51.96
882.00,52.05
881.00,52.15
880.00,52.29
879.00,52.47
878.00,52.65
877.00,52.80
876.00,52.90
875.00,52.99
874.00,53.05
873.00,53.08
872.00,53.04
871.00,52.95
870.00,52.85
869.00,52.74
868.00,52.62
867.00,52.49
866.00,52.38
865.00,52.32
864.00,52.29
863.00,52.21
862.00,52.09
861.00,51.97
860.00,51.91
859.00,51.87
858.00,51.81
857.00,51.70
856.00,51.60
855.00,51.58
854.00,51.65
853.00,51.71
852.00,51.70
851.00,51.64
850.00,51.62
849.00,51.69
848.00,51.76
847.00,51.73
846.00,51.64
845.00,51.61
844.00,51.70
843.00,51.86
842.00,52.03
841.00,52.20
840.00,52.41
839.00,52.63
838.00,52.84
837.00,53.05
836.00,53.26
835.00,53.42
834.00,53.45
833.00,53.32
832.00,53.13
831.00,52.96
830.00,52.88
829.00,52.88
828.00,52.90
827.00,52.91
826.00,52.91
825.00,52.90
824.00,52.86
823.00,52.76
822.00,52.60
821.00,52.47
820.00,52.41
819.00,52.40
818.00,52.40
817.00,52.41
816.00,52.44
815.00,52.49
814.00,52.51
813.00,52.49
812.00,52.45
811.00,52.45
810.00,52.51
809.00,52.61
808.00,52.72
807.00,52.81
806.00,52.83
805.00,52.77
804.00,52.66
803.00,52.52
802.00,52.41
801.00,52.34
800.00,52.31
799.00,52.27
798.00,52.23
797.00,52.20
796.00,52.24
795.00,52.31
794.00,52.35
793.00,52.32
792.00,52.25
791.00,52.18
790.00,52.13
789.00,52.04
788.00,51.94
787.00,51.84
786.00,51.79
785.00,51.78
784.00,51.77
783.00,51.70
782.00,51.56
781.00,51.38
780.00,51.23
779.00,51.14
778.00,51.09
777.00,51.02
776.00,50.88
775.00,50.62
774.00,50.27
773.00,49.95
772.00,49.75
771.00,49.66
770.00,49.58
769.00,49.47
768.00,49.39
767.00,49.40
766.00,49.46
765.00,49.48
764.00,49.42
763.00,49.31
762.00,49.19
761.00,49.10
760.00,49.05
759.00,49.05
758.00,49.07
757.00,49.07
756.00,49.02
755.00,48.91
754.00,48.78
753.00,48.64
752.00,48.51
751.00,48.40
750.00,48.31
749.00,48.20
748.00,48.09
747.00,47.97
746.00,47.87
745.00,47.78
744.00,47.69
743.00,47.59
742.00,47.48
741.00,47.43
740.00,47.46
739.00,47.55
738.00,47.60
737.00,47.58
736.00,47.49
735.00,47.41
734.00,47.35
733.00,47.31
732.00,47.25
731.00,47.20
730.00,47.20
729.00,47.25
728.00,47.29
727.00,47.31
726.00,47.31
725.00,47.33
724.00,47.36
723.00,47.37
722.00,47.32
721.00,47.21
720.00,47.12
719.00,47.09
718.00,47.07
717.00,47.04
716.00,47.02
715.00,47.09
714.00,47.25
713.00,47.40
712.00,47.43
711.00,47.38
710.00,47.35
709.00,47.40
708.00,47.51
707.00,47.63
706.00,47.75
705.00,47.92
704.00,48.13
703.00,48.33
702.00,48.48
701.00,48.57
700.00,48.62
699.00,48.70
698.00,48.85
697.00,49.05
696.00,49.23
695.00,49.34
694.00,49.45
693.00,49.66
692.00,49.95
691.00,50.21
690.00,50.34
689.00,50.39
688.00,50.48
687.00,50.70
686.00,51.01
685.00,51.36
684.00,51.68
683.00,51.94
682.00,52.16
681.00,52.42
680.00,52.75
679.00,53.13
678.00,53.50
677.00,53.84
676.00,54.16
675.00,54.35
674.00,54.40
673.00,54.37
672.00,54.36
671.00,54.30
670.00,54.17
669.00,54.25
668.00,55.09
667.00,56.35
666.00,57.00
665.00,57.11
664.00,56.97
663.00,56.78
662.00,56.63
661.00,56.57
660.00,56.65
659.00,56.90
658.00,57.27
657.00,57.61
656.00,57.81
655.00,57.90
654.00,58.01
653.00,58.26
652.00,58.64
651.00,58.98
650.00,59.09
