Created as New Dataset,
cm-1,ARB
4000.00,56.26
3999.00,56.26
3998.00,56.25
3997.00,56.26
3996.00,56.28
3995.00,56.29
3994.00,56.28
3993.00,56.24
3992.00,56.20
3991.00,56.17
3990.00,56.19
3989.00,56.24
3988.00,56.28
3987.00,56.32
3986.00,56.34
3985.00,56.34
3984.00,56.32
3983.00,56.29
3982.00,56.26
3981.00,56.26
3980.00,56.31
3979.00,56.40
3978.00,56.48
3977.00,56.53
3976.00,56.56
3975.00,56.57
3974.00,56.60
3973.00,56.63
3972.00,56.65
3971.00,56.64
3970.00,56.60
3969.00,56.59
3968.00,56.61
3967.00,56.63
3966.00,56.64
3965.00,56.62
3964.00,56.59
3963.00,56.58
3962.00,56.61
3961.00,56.66
3960.00,56.71
3959.00,56.76
3958.00,56.80
3957.00,56.81
3956.00,56.81
3955.00,56.82
3954.00,56.85
3953.00,56.92
3952.00,57.01
3951.00,57.08
3950.00,57.11
3949.00,57.09
3948.00,57.03
3947.00,56.98
3946.00,56.93
3945.00,56.90
3944.00,56.86
3943.00,56.83
3942.00,56.80
3941.00,56.80
3940.00,56.83
3939.00,56.84
3938.00,56.82
3937.00,56.80
3936.00,56.82
3935.00,56.89
3934.00,56.96
3933.00,56.99
3932.00,56.94
3931.00,56.86
3930.00,56.78
3929.00,56.73
3928.00,56.71
3927.00,56.71
3926.00,56.71
3925.00,56.69
3924.00,56.68
3923.00,56.70
3922.00,56.77
3921.00,56.86
3920.00,56.92
3919.00,56.94
3918.00,56.93
3917.00,56.89
3916.00,56.83
3915.00,56.78
3914.00,56.76
3913.00,56.80
3912.00,56.86
3911.00,56.89
3910.00,56.91
3909.00,56.92
3908.00,56.95
3907.00,57.02
3906.00,57.11
3905.00,57.21
3904.00,57.28
3903.00,57.32
3902.00,57.31
3901.00,57.24
3900.00,57.09
3899.00,56.90
3898.00,56.76
3897.00,56.73
3896.00,56.78
3895.00,56.85
3894.00,56.91
3893.00,56.93
3892.00,56.93
3891.00,56.90
3890.00,56.88
3889.00,56.91
3888.00,57.01
3887.00,57.13
3886.00,57.20
3885.00,57.21
3884.00,57.25
3883.00,57.32
3882.00,57.34
3881.00,57.25
3880.00,57.07
3879.00,56.93
3878.00,56.94
3877.00,57.06
3876.00,57.20
3875.00,57.26
3874.00,57.24
3873.00,57.22
3872.00,57.27
3871.00,57.39
3870.00,57.42
3869.00,57.32
3868.00,57.21
3867.00,57.23
3866.00,57.32
3865.00,57.35
3864.00,57.30
3863.00,57.26
3862.00,57.27
3861.00,57.31
3860.00,57.35
3859.00,57.37
3858.00,57.36
3857.00,57.34
3856.00,57.34
3855.00,57.35
3854.00,57.31
3853.00,57.25
3852.00,57.27
3851.00,57.38
3850.00,57.47
3849.00,57.47
3848.00,57.42
3847.00,57.41
3846.00,57.44
3845.00,57.48
3844.00,57.50
3843.00,57.51
3842.00,57.50
3841.00,57.46
3840.00,57.42
3839.00,57.40
3838.00,57.40
3837.00,57.40
3836.00,57.38
3835.00,57.35
3834.00,57.34
3833.00,57.35
3832.00,57.36
3831.00,57.36
3830.00,57.38
3829.00,57.42
3828.00,57.49
3827.00,57.53
3826.00,57.51
3825.00,57.45
3824.00,57.44
3823.00,57.49
3822.00,57.49
3821.00,57.36
3820.00,57.19
3819.00,57.13
3818.00,57.23
3817.00,57.35
3816.00,57.35
3815.00,57.24
3814.00,57.17
3813.00,57.18
3812.00,57.18
3811.00,57.15
3810.00,57.14
3809.00,57.20
3808.00,57.29
3807.00,57.30
3806.00,57.23
3805.00,57.19
3804.00,57.26
3803.00,57.41
3802.00,57.50
3801.00,57.50
3800.00,57.47
3799.00,57.49
3798.00,57.49
3797.00,57.41
3796.00,57.26
3795.00,57.14
3794.00,57.11
3793.00,57.15
3792.00,57.21
3791.00,57.25
3790.00,57.27
3789.00,57.28
3788.00,57.29
3787.00,57.30
3786.00,57.31
3785.00,57.32
3784.00,57.32
3783.00,57.32
3782.00,57.32
3781.00,57.32
3780.00,57.28
3779.00,57.20
3778.00,57.12
3777.00,57.07
3776.00,57.05
3775.00,57.05
3774.00,57.04
3773.00,57.01
3772.00,56.99
3771.00,56.96
3770.00,56.93
3769.00,56.93
3768.00,56.97
3767.00,57.00
3766.00,56.95
3765.00,56.82
3764.00,56.71
3763.00,56.71
3762.00,56.79
3761.00,56.85
3760.00,56.87
3759.00,56.89
3758.00,56.95
3757.00,57.00
3756.00,57.01
3755.00,57.00
3754.00,57.02
3753.00,57.05
3752.00,57.03
3751.00,57.01
3750.00,57.02
3749.00,57.03
3748.00,57.01
3747.00,57.01
3746.00,57.06
3745.00,57.10
3744.00,57.11
3743.00,57.16
3742.00,57.30
3741.00,57.42
3740.00,57.43
3739.00,57.37
3738.00,57.37
3737.00,57.42
3736.00,57.40
3735.00,57.27
3734.00,57.16
3733.00,57.14
3732.00,57.15
3731.00,57.16
3730.00,57.17
3729.00,57.20
3728.00,57.23
3727.00,57.21
3726.00,57.16
3725.00,57.11
3724.00,57.10
3723.00,57.07
3722.00,57.01
3721.00,56.94
3720.00,56.90
3719.00,56.89
3718.00,56.87
3717.00,56.81
3716.00,56.74
3715.00,56.70
3714.00,56.71
3713.00,56.75
3712.00,56.76
3711.00,56.74
3710.00,56.67
3709.00,56.57
3708.00,56.48
3707.00,56.43
3706.00,56.43
3705.00,56.46
3704.00,56.48
3703.00,56.45
3702.00,56.36
3701.00,56.23
3700.00,56.10
3699.00,56.01
3698.00,55.96
3697.00,55.92
3696.00,55.88
3695.00,55.86
3694.00,55.86
3693.00,55.86
3692.00,55.84
3691.00,55.82
3690.00,55.79
3689.00,55.75
3688.00,55.69
3687.00,55.66
3686.00,55.64
3685.00,55.60
3684.00,55.53
3683.00,55.47
3682.00,55.47
3681.00,55.54
3680.00,55.58
3679.00,55.57
3678.00,55.55
3677.00,55.59
3676.00,55.64
3675.00,55.64
3674.00,55.62
3673.00,55.64
3672.00,55.71
3671.00,55.77
3670.00,55.78
3669.00,55.75
3668.00,55.72
3667.00,55.69
3666.00,55.65
3665.00,55.61
3664.00,55.56
3663.00,55.51
3662.00,55.48
3661.00,55.46
3660.00,55.42
3659.00,55.39
3658.00,55.40
3657.00,55.49
3656.00,55.62
3655.00,55.73
3654.00,55.79
3653.00,55.79
3652.00,55.75
3651.00,55.70
3650.00,55.72
3649.00,55.80
3648.00,55.86
3647.00,55.81
3646.00,55.69
3645.00,55.55
3644.00,55.40
3643.00,55.23
3642.00,55.09
3641.00,54.99
3640.00,54.95
3639.00,54.92
3638.00,54.87
3637.00,54.83
3636.00,54.81
3635.00,54.82
3634.00,54.83
3633.00,54.83
3632.00,54.86
3631.00,54.97
3630.00,55.12
3629.00,55.28
3628.00,55.42
3627.00,55.56
3626.00,55.68
3625.00,55.72
3624.00,55.67
3623.00,55.60
3622.00,55.59
3621.00,55.63
3620.00,55.68
3619.00,55.71
3618.00,55.72
3617.00,55.75
3616.00,55.76
3615.00,55.74
3614.00,55.68
3613.00,55.59
3612.00,55.53
3611.00,55.53
3610.00,55.61
3609.00,55.71
3608.00,55.78
3607.00,55.79
3606.00,55.77
3605.00,55.75
3604.00,55.75
3603.00,55.80
3602.00,55.88
3601.00,55.96
3600.00,56.03
3599.00,56.08
3598.00,56.14
3597.00,56.17
3596.00,56.17
3595.00,56.14
3594.00,56.13
3593.00,56.14
3592.00,56.15
3591.00,56.17
3590.00,56.21
3589.00,56.24
3588.00,56.27
3587.00,56.29
3586.00,56.30
3585.00,56.32
3584.00,56.30
3583.00,56.24
3582.00,56.16
3581.00,56.09
3580.00,56.05
3579.00,56.04
3578.00,56.04
3577.00,56.03
3576.00,56.01
3575.00,56.00
3574.00,55.99
3573.00,55.99
3572.00,56.00
3571.00,56.02
3570.00,56.08
3569.00,56.16
3568.00,56.23
3567.00,56.24
3566.00,56.20
3565.00,56.14
3564.00,56.11
3563.00,56.10
3562.00,56.08
3561.00,56.02
3560.00,55.93
3559.00,55.86
3558.00,55.82
3557.00,55.79
3556.00,55.79
3555.00,55.78
3554.00,55.78
3553.00,55.77
3552.00,55.76
3551.00,55.76
3550.00,55.79
3549.00,55.80
3548.00,55.77
3547.00,55.70
3546.00,55.64
3545.00,55.61
3544.00,55.57
3543.00,55.52
3542.00,55.45
3541.00,55.38
3540.00,55.33
3539.00,55.30
3538.00,55.29
3537.00,55.28
3536.00,55.26
3535.00,55.23
3534.00,55.23
3533.00,55.23
3532.00,55.23
3531.00,55.24
3530.00,55.25
3529.00,55.27
3528.00,55.26
3527.00,55.23
3526.00,55.22
3525.00,55.21
3524.00,55.20
3523.00,55.15
3522.00,55.11
3521.00,55.10
3520.00,55.12
3519.00,55.14
3518.00,55.12
3517.00,55.08
3516.00,55.03
3515.00,54.99
3514.00,54.97
3513.00,54.99
3512.00,55.03
3511.00,55.04
3510.00,54.99
3509.00,54.90
3508.00,54.84
3507.00,54.83
3506.00,54.87
3505.00,54.90
3504.00,54.93
3503.00,54.96
3502.00,54.98
3501.00,54.96
3500.00,54.91
3499.00,54.85
3498.00,54.83
3497.00,54.84
3496.00,54.84
3495.00,54.81
3494.00,54.73
3493.00,54.65
3492.00,54.60
3491.00,54.58
3490.00,54.59
3489.00,54.60
3488.00,54.61
3487.00,54.61
3486.00,54.61
3485.00,54.60
3484.00,54.59
3483.00,54.56
3482.00,54.55
3481.00,54.53
3480.00,54.50
3479.00,54.46
3478.00,54.44
3477.00,54.43
3476.00,54.43
3475.00,54.39
3474.00,54.32
3473.00,54.23
3472.00,54.16
3471.00,54.14
3470.00,54.17
3469.00,54.19
3468.00,54.17
3467.00,54.10
3466.00,54.04
3465.00,54.00
3464.00,53.97
3463.00,53.92
3462.00,53.84
3461.00,53.76
3460.00,53.72
3459.00,53.71
3458.00,53.70
3457.00,53.66
3456.00,53.59
3455.00,53.54
3454.00,53.53
3453.00,53.55
3452.00,53.57
3451.00,53.57
3450.00,53.54
3449.00,53.47
3448.00,53.38
3447.00,53.30
3446.00,53.26
3445.00,53.26
3444.00,53.26
3443.00,53.24
3442.00,53.19
3441.00,53.15
3440.00,53.10
3439.00,53.05
3438.00,53.00
3437.00,52.94
3436.00,52.88
3435.00,52.82
3434.00,52.76
3433.00,52.71
3432.00,52.70
3431.00,52.71
3430.00,52.71
3429.00,52.69
3428.00,52.64
3427.00,52.59
3426.00,52.54
3425.00,52.50
3424.00,52.48
3423.00,52.49
3422.00,52.50
3421.00,52.53
3420.00,52.55
3419.00,52.56
3418.00,52.58
3417.00,52.58
3416.00,52.56
3415.00,52.52
3414.00,52.47
3413.00,52.41
3412.00,52.36
3411.00,52.33
3410.00,52.33
3409.00,52.35
3408.00,52.36
3407.00,52.37
3406.00,52.37
3405.00,52.38
3404.00,52.40
3403.00,52.43
3402.00,52.48
3401.00,52.54
3400.00,52.60
3399.00,52.64
3398.00,52.65
3397.00,52.64
3396.00,52.63
3395.00,52.65
3394.00,52.67
3393.00,52.67
3392.00,52.64
3391.00,52.61
3390.00,52.63
3389.00,52.68
3388.00,52.72
3387.00,52.73
3386.00,52.69
3385.00,52.64
3384.00,52.58
3383.00,52.52
3382.00,52.45
3381.00,52.40
3380.00,52.38
3379.00,52.39
3378.00,52.40
3377.00,52.40
3376.00,52.36
3375.00,52.31
3374.00,52.27
3373.00,52.26
3372.00,52.29
3371.00,52.35
3370.00,52.38
3369.00,52.36
3368.00,52.29
3367.00,52.22
3366.00,52.18
3365.00,52.18
3364.00,52.18
3363.00,52.16
3362.00,52.14
3361.00,52.13
3360.00,52.13
3359.00,52.14
3358.00,52.14
3357.00,52.14
3356.00,52.12
3355.00,52.09
3354.00,52.05
3353.00,52.00
3352.00,51.96
3351.00,51.95
3350.00,51.94
3349.00,51.94
3348.00,51.91
3347.00,51.89
3346.00,51.87
3345.00,51.86
3344.00,51.85
3343.00,51.87
3342.00,51.93
3341.00,52.00
3340.00,52.07
3339.00,52.12
3338.00,52.18
3337.00,52.26
3336.00,52.33
3335.00,52.37
3334.00,52.39
3333.00,52.43
3332.00,52.47
3331.00,52.51
3330.00,52.55
3329.00,52.58
3328.00,52.61
3327.00,52.62
3326.00,52.65
3325.00,52.69
3324.00,52.73
3323.00,52.75
3322.00,52.75
3321.00,52.74
3320.00,52.72
3319.00,52.72
3318.00,52.73
3317.00,52.76
3316.00,52.80
3315.00,52.82
3314.00,52.82
3313.00,52.80
3312.00,52.77
3311.00,52.73
3310.00,52.68
3309.00,52.63
3308.00,52.56
3307.00,52.47
3306.00,52.41
3305.00,52.37
3304.00,52.36
3303.00,52.36
3302.00,52.37
3301.00,52.39
3300.00,52.40
3299.00,52.38
3298.00,52.35
3297.00,52.32
3296.00,52.31
3295.00,52.32
3294.00,52.31
3293.00,52.29
3292.00,52.27
3291.00,52.24
3290.00,52.23
3289.00,52.24
3288.00,52.28
3287.00,52.32
3286.00,52.34
3285.00,52.33
3284.00,52.30
3283.00,52.27
3282.00,52.26
3281.00,52.27
3280.00,52.29
3279.00,52.31
3278.00,52.34
3277.00,52.36
3276.00,52.37
3275.00,52.37
3274.00,52.35
3273.00,52.32
3272.00,52.31
3271.00,52.33
3270.00,52.35
3269.00,52.37
3268.00,52.37
3267.00,52.36
3266.00,52.35
3265.00,52.36
3264.00,52.38
3263.00,52.40
3262.00,52.40
3261.00,52.40
3260.00,52.40
3259.00,52.39
3258.00,52.39
3257.00,52.38
3256.00,52.37
3255.00,52.38
3254.00,52.41
3253.00,52.42
3252.00,52.41
3251.00,52.39
3250.00,52.37
3249.00,52.37
3248.00,52.37
3247.00,52.38
3246.00,52.36
3245.00,52.33
3244.00,52.29
3243.00,52.26
3242.00,52.25
3241.00,52.25
3240.00,52.21
3239.00,52.15
3238.00,52.08
3237.00,52.03
3236.00,51.99
3235.00,51.95
3234.00,51.90
3233.00,51.86
3232.00,51.82
3231.00,51.78
3230.00,51.72
3229.00,51.63
3228.00,51.53
3227.00,51.45
3226.00,51.42
3225.00,51.41
3224.00,51.40
3223.00,51.37
3222.00,51.31
3221.00,51.24
3220.00,51.19
3219.00,51.16
3218.00,51.12
3217.00,51.09
3216.00,51.06
3215.00,51.05
3214.00,51.05
3213.00,51.05
3212.00,51.03
3211.00,51.02
3210.00,51.03
3209.00,51.04
3208.00,51.03
3207.00,51.02
3206.00,51.01
3205.00,51.00
3204.00,50.98
3203.00,50.93
3202.00,50.87
3201.00,50.82
3200.00,50.79
3199.00,50.79
3198.00,50.80
3197.00,50.82
3196.00,50.84
3195.00,50.86
3194.00,50.87
3193.00,50.88
3192.00,50.89
3191.00,50.91
3190.00,50.93
3189.00,50.94
3188.00,50.93
3187.00,50.91
3186.00,50.91
3185.00,50.92
3184.00,50.95
3183.00,50.98
3182.00,51.01
3181.00,51.02
3180.00,50.99
3179.00,50.95
3178.00,50.92
3177.00,50.91
3176.00,50.92
3175.00,50.92
3174.00,50.92
3173.00,50.94
3172.00,50.99
3171.00,51.05
3170.00,51.08
3169.00,51.07
3168.00,51.04
3167.00,50.99
3166.00,50.96
3165.00,50.97
3164.00,51.02
3163.00,51.07
3162.00,51.08
3161.00,51.03
3160.00,50.93
3159.00,50.85
3158.00,50.80
3157.00,50.80
3156.00,50.83
3155.00,50.87
3154.00,50.92
3153.00,50.98
3152.00,51.04
3151.00,51.08
3150.00,51.07
3149.00,51.03
3148.00,50.97
3147.00,50.92
3146.00,50.91
3145.00,50.92
3144.00,50.95
3143.00,50.97
3142.00,50.99
3141.00,50.98
3140.00,50.96
3139.00,50.93
3138.00,50.90
3137.00,50.88
3136.00,50.87
3135.00,50.87
3134.00,50.90
3133.00,50.97
3132.00,51.05
3131.00,51.12
3130.00,51.15
3129.00,51.14
3128.00,51.11
3127.00,51.09
3126.00,51.08
3125.00,51.09
3124.00,51.10
3123.00,51.12
3122.00,51.14
3121.00,51.14
3120.00,51.14
3119.00,51.14
3118.00,51.16
3117.00,51.19
3116.00,51.23
3115.00,51.24
3114.00,51.23
3113.00,51.21
3112.00,51.21
3111.00,51.23
3110.00,51.27
3109.00,51.29
3108.00,51.30
3107.00,51.27
3106.00,51.24
3105.00,51.21
3104.00,51.19
3103.00,51.18
3102.00,51.18
3101.00,51.18
3100.00,51.17
3099.00,51.16
3098.00,51.15
3097.00,51.16
3096.00,51.19
3095.00,51.21
3094.00,51.22
3093.00,51.22
3092.00,51.19
3091.00,51.17
3090.00,51.16
3089.00,51.17
3088.00,51.19
3087.00,51.19
3086.00,51.20
3085.00,51.20
3084.00,51.21
3083.00,51.20
3082.00,51.19
3081.00,51.17
3080.00,51.16
3079.00,51.16
3078.00,51.17
3077.00,51.17
3076.00,51.16
3075.00,51.15
3074.00,51.16
3073.00,51.19
3072.00,51.21
3071.00,51.19
3070.00,51.15
3069.00,51.11
3068.00,51.11
3067.00,51.14
3066.00,51.19
3065.00,51.22
3064.00,51.24
3063.00,51.23
3062.00,51.20
3061.00,51.17
3060.00,51.17
3059.00,51.18
3058.00,51.18
3057.00,51.18
3056.00,51.19
3055.00,51.20
3054.00,51.21
3053.00,51.19
3052.00,51.14
3051.00,51.10
3050.00,51.08
3049.00,51.08
3048.00,51.08
3047.00,51.08
3046.00,51.10
3045.00,51.12
3044.00,51.13
3043.00,51.14
3042.00,51.14
3041.00,51.16
3040.00,51.16
3039.00,51.14
3038.00,51.13
3037.00,51.12
3036.00,51.13
3035.00,51.12
3034.00,51.08
3033.00,51.03
3032.00,50.99
3031.00,50.97
3030.00,50.98
3029.00,51.02
3028.00,51.07
3027.00,51.10
3026.00,51.13
3025.00,51.14
3024.00,51.15
3023.00,51.17
3022.00,51.18
3021.00,51.17
3020.00,51.16
3019.00,51.16
3018.00,51.18
3017.00,51.21
3016.00,51.22
3015.00,51.22
3014.00,51.20
3013.00,51.17
3012.00,51.13
3011.00,51.10
3010.00,51.10
3009.00,51.12
3008.00,51.14
3007.00,51.16
3006.00,51.16
3005.00,51.16
3004.00,51.16
3003.00,51.16
3002.00,51.16
3001.00,51.18
3000.00,51.18
2999.00,51.19
2998.00,51.20
2997.00,51.22
2996.00,51.24
2995.00,51.24
2994.00,51.22
2993.00,51.19
2992.00,51.16
2991.00,51.13
2990.00,51.10
2989.00,51.10
2988.00,51.11
2987.00,51.14
2986.00,51.17
2985.00,51.19
2984.00,51.20
2983.00,51.20
2982.00,51.17
2981.00,51.12
2980.00,51.06
2979.00,51.02
2978.00,51.02
2977.00,51.06
2976.00,51.10
2975.00,51.13
2974.00,51.14
2973.00,51.14
2972.00,51.14
2971.00,51.14
2970.00,51.16
2969.00,51.19
2968.00,51.23
2967.00,51.27
2966.00,51.31
2965.00,51.34
2964.00,51.35
2963.00,51.35
2962.00,51.34
2961.00,51.32
2960.00,51.31
2959.00,51.30
2958.00,51.30
2957.00,51.32
2956.00,51.37
2955.00,51.43
2954.00,51.48
2953.00,51.49
2952.00,51.47
2951.00,51.45
2950.00,51.45
2949.00,51.47
2948.00,51.47
2947.00,51.47
2946.00,51.48
2945.00,51.50
2944.00,51.53
2943.00,51.55
2942.00,51.58
2941.00,51.61
2940.00,51.63
2939.00,51.62
2938.00,51.58
2937.00,51.54
2936.00,51.52
2935.00,51.53
2934.00,51.54
2933.00,51.54
2932.00,51.54
2931.00,51.55
2930.00,51.60
2929.00,51.66
2928.00,51.71
2927.00,51.72
2926.00,51.71
2925.00,51.72
2924.00,51.77
2923.00,51.83
2922.00,51.86
2921.00,51.85
2920.00,51.82
2919.00,51.82
2918.00,51.85
2917.00,51.90
2916.00,51.92
2915.00,51.92
2914.00,51.91
2913.00,51.90
2912.00,51.88
2911.00,51.86
2910.00,51.84
2909.00,51.83
2908.00,51.84
2907.00,51.88
2906.00,51.91
2905.00,51.91
2904.00,51.87
2903.00,51.82
2902.00,51.80
2901.00,51.84
2900.00,51.90
2899.00,51.93
2898.00,51.92
2897.00,51.90
2896.00,51.88
2895.00,51.88
2894.00,51.88
2893.00,51.89
2892.00,51.89
2891.00,51.90
2890.00,51.91
2889.00,51.94
2888.00,51.98
2887.00,51.99
2886.00,51.99
2885.00,51.98
2884.00,51.97
2883.00,51.97
2882.00,51.96
2881.00,51.95
2880.00,51.95
2879.00,51.95
2878.00,51.95
2877.00,51.96
2876.00,51.97
2875.00,51.98
2874.00,52.00
2873.00,52.05
2872.00,52.10
2871.00,52.13
2870.00,52.13
2869.00,52.11
2868.00,52.09
2867.00,52.08
2866.00,52.08
2865.00,52.08
2864.00,52.11
2863.00,52.16
2862.00,52.21
2861.00,52.23
2860.00,52.23
2859.00,52.21
2858.00,52.20
2857.00,52.20
2856.00,52.21
2855.00,52.22
2854.00,52.21
2853.00,52.19
2852.00,52.17
2851.00,52.18
2850.00,52.21
2849.00,52.22
2848.00,52.21
2847.00,52.17
2846.00,52.14
2845.00,52.12
2844.00,52.12
2843.00,52.14
2842.00,52.17
2841.00,52.19
2840.00,52.19
2839.00,52.18
2838.00,52.16
2837.00,52.17
2836.00,52.20
2835.00,52.24
2834.00,52.28
2833.00,52.32
2832.00,52.36
2831.00,52.38
2830.00,52.39
2829.00,52.37
2828.00,52.34
2827.00,52.32
2826.00,52.31
2825.00,52.30
2824.00,52.28
2823.00,52.26
2822.00,52.25
2821.00,52.26
2820.00,52.27
2819.00,52.29
2818.00,52.32
2817.00,52.34
2816.00,52.37
2815.00,52.39
2814.00,52.39
2813.00,52.41
2812.00,52.44
2811.00,52.46
2810.00,52.45
2809.00,52.43
2808.00,52.42
2807.00,52.41
2806.00,52.42
2805.00,52.44
2804.00,52.47
2803.00,52.48
2802.00,52.47
2801.00,52.46
2800.00,52.47
2799.00,52.48
2798.00,52.48
2797.00,52.46
2796.00,52.45
2795.00,52.48
2794.00,52.53
2793.00,52.58
2792.00,52.60
2791.00,52.59
2790.00,52.57
2789.00,52.54
2788.00,52.54
2787.00,52.55
2786.00,52.56
2785.00,52.56
2784.00,52.56
2783.00,52.59
2782.00,52.65
2781.00,52.72
2780.00,52.74
2779.00,52.73
2778.00,52.69
2777.00,52.66
2776.00,52.68
2775.00,52.71
2774.00,52.75
2773.00,52.76
2772.00,52.75
2771.00,52.74
2770.00,52.75
2769.00,52.76
2768.00,52.77
2767.00,52.76
2766.00,52.74
2765.00,52.73
2764.00,52.74
2763.00,52.76
2762.00,52.77
2761.00,52.78
2760.00,52.79
2759.00,52.81
2758.00,52.83
2757.00,52.86
2756.00,52.88
2755.00,52.89
2754.00,52.90
2753.00,52.90
2752.00,52.92
2751.00,52.92
2750.00,52.89
2749.00,52.84
2748.00,52.78
2747.00,52.77
2746.00,52.79
2745.00,52.83
2744.00,52.86
2743.00,52.87
2742.00,52.87
2741.00,52.85
2740.00,52.83
2739.00,52.82
2738.00,52.83
2737.00,52.85
2736.00,52.87
2735.00,52.88
2734.00,52.90
2733.00,52.93
2732.00,52.98
2731.00,53.01
2730.00,53.03
2729.00,53.01
2728.00,52.97
2727.00,52.94
2726.00,52.94
2725.00,52.97
2724.00,52.99
2723.00,53.00
2722.00,52.98
2721.00,52.96
2720.00,52.94
2719.00,52.93
2718.00,52.94
2717.00,52.96
2716.00,52.97
2715.00,52.97
2714.00,52.98
2713.00,53.00
2712.00,53.02
2711.00,53.02
2710.00,53.01
2709.00,52.99
2708.00,52.99
2707.00,53.02
2706.00,53.08
2705.00,53.14
2704.00,53.19
2703.00,53.21
2702.00,53.22
2701.00,53.21
2700.00,53.19
2699.00,53.18
2698.00,53.17
2697.00,53.16
2696.00,53.17
2695.00,53.18
2694.00,53.20
2693.00,53.21
2692.00,53.23
2691.00,53.24
2690.00,53.26
2689.00,53.28
2688.00,53.29
2687.00,53.30
2686.00,53.31
2685.00,53.31
2684.00,53.33
2683.00,53.36
2682.00,53.38
2681.00,53.37
2680.00,53.34
2679.00,53.32
2678.00,53.32
2677.00,53.35
2676.00,53.38
2675.00,53.39
2674.00,53.37
2673.00,53.34
2672.00,53.32
2671.00,53.32
2670.00,53.33
2669.00,53.34
2668.00,53.35
2667.00,53.35
2666.00,53.35
2665.00,53.35
2664.00,53.35
2663.00,53.33
2662.00,53.32
2661.00,53.32
2660.00,53.33
2659.00,53.35
2658.00,53.35
2657.00,53.36
2656.00,53.36
2655.00,53.37
2654.00,53.39
2653.00,53.40
2652.00,53.41
2651.00,53.41
2650.00,53.42
2649.00,53.44
2648.00,53.48
2647.00,53.51
2646.00,53.52
2645.00,53.52
2644.00,53.51
2643.00,53.50
2642.00,53.48
2641.00,53.47
2640.00,53.47
2639.00,53.49
2638.00,53.53
2637.00,53.56
2636.00,53.57
2635.00,53.56
2634.00,53.55
2633.00,53.56
2632.00,53.60
2631.00,53.65
2630.00,53.67
2629.00,53.64
2628.00,53.58
2627.00,53.52
2626.00,53.50
2625.00,53.51
2624.00,53.52
2623.00,53.52
2622.00,53.52
2621.00,53.53
2620.00,53.55
2619.00,53.56
2618.00,53.55
2617.00,53.52
2616.00,53.48
2615.00,53.44
2614.00,53.43
2613.00,53.46
2612.00,53.51
2611.00,53.57
2610.00,53.62
2609.00,53.66
2608.00,53.69
2607.00,53.70
2606.00,53.70
2605.00,53.69
2604.00,53.67
2603.00,53.65
2602.00,53.62
2601.00,53.61
2600.00,53.62
2599.00,53.64
2598.00,53.65
2597.00,53.67
2596.00,53.69
2595.00,53.71
2594.00,53.71
2593.00,53.70
2592.00,53.68
2591.00,53.67
2590.00,53.66
2589.00,53.64
2588.00,53.63
2587.00,53.62
2586.00,53.63
2585.00,53.62
2584.00,53.60
2583.00,53.56
2582.00,53.53
2581.00,53.53
2580.00,53.58
2579.00,53.66
2578.00,53.73
2577.00,53.77
2576.00,53.77
2575.00,53.75
2574.00,53.72
2573.00,53.69
2572.00,53.67
2571.00,53.67
2570.00,53.68
2569.00,53.70
2568.00,53.74
2567.00,53.77
2566.00,53.79
2565.00,53.80
2564.00,53.81
2563.00,53.81
2562.00,53.82
2561.00,53.81
2560.00,53.80
2559.00,53.80
2558.00,53.82
2557.00,53.84
2556.00,53.85
2555.00,53.87
2554.00,53.89
2553.00,53.91
2552.00,53.90
2551.00,53.89
2550.00,53.88
2549.00,53.90
2548.00,53.94
2547.00,53.97
2546.00,53.98
2545.00,53.99
2544.00,54.00
2543.00,54.03
2542.00,54.07
2541.00,54.10
2540.00,54.13
2539.00,54.14
2538.00,54.17
2537.00,54.20
2536.00,54.23
2535.00,54.25
2534.00,54.25
2533.00,54.25
2532.00,54.26
2531.00,54.28
2530.00,54.30
2529.00,54.32
2528.00,54.33
2527.00,54.36
2526.00,54.41
2525.00,54.47
2524.00,54.50
2523.00,54.53
2522.00,54.54
2521.00,54.56
2520.00,54.57
2519.00,54.59
2518.00,54.61
2517.00,54.65
2516.00,54.70
2515.00,54.75
2514.00,54.80
2513.00,54.83
2512.00,54.84
2511.00,54.83
2510.00,54.84
2509.00,54.87
2508.00,54.92
2507.00,54.96
2506.00,54.97
2505.00,54.95
2504.00,54.93
2503.00,54.93
2502.00,54.96
2501.00,54.99
2500.00,54.98
2499.00,54.95
2498.00,54.88
2497.00,54.82
2496.00,54.79
2495.00,54.81
2494.00,54.85
2493.00,54.88
2492.00,54.87
2491.00,54.84
2490.00,54.82
2489.00,54.81
2488.00,54.81
2487.00,54.83
2486.00,54.85
2485.00,54.88
2484.00,54.91
2483.00,54.94
2482.00,54.96
2481.00,54.97
2480.00,54.98
2479.00,54.99
2478.00,55.01
2477.00,55.04
2476.00,55.07
2475.00,55.08
2474.00,55.10
2473.00,55.11
2472.00,55.11
2471.00,55.12
2470.00,55.14
2469.00,55.17
2468.00,55.19
2467.00,55.20
2466.00,55.22
2465.00,55.24
2464.00,55.25
2463.00,55.23
2462.00,55.17
2461.00,55.10
2460.00,55.04
2459.00,55.00
2458.00,54.99
2457.00,55.00
2456.00,55.02
2455.00,55.03
2454.00,55.04
2453.00,55.04
2452.00,55.03
2451.00,55.02
2450.00,55.00
2449.00,54.99
2448.00,54.96
2447.00,54.93
2446.00,54.91
2445.00,54.89
2444.00,54.87
2443.00,54.84
2442.00,54.80
2441.00,54.76
2440.00,54.73
2439.00,54.71
2438.00,54.68
2437.00,54.66
2436.00,54.64
2435.00,54.63
2434.00,54.62
2433.00,54.61
2432.00,54.60
2431.00,54.57
2430.00,54.55
2429.00,54.54
2428.00,54.54
2427.00,54.56
2426.00,54.58
2425.00,54.61
2424.00,54.63
2423.00,54.64
2422.00,54.67
2421.00,54.70
2420.00,54.72
2419.00,54.73
2418.00,54.74
2417.00,54.77
2416.00,54.81
2415.00,54.85
2414.00,54.87
2413.00,54.89
2412.00,54.90
2411.00,54.90
2410.00,54.89
2409.00,54.86
2408.00,54.82
2407.00,54.78
2406.00,54.74
2405.00,54.72
2404.00,54.72
2403.00,54.73
2402.00,54.74
2401.00,54.74
2400.00,54.74
2399.00,54.73
2398.00,54.73
2397.00,54.75
2396.00,54.78
2395.00,54.81
2394.00,54.82
2393.00,54.81
2392.00,54.80
2391.00,54.81
2390.00,54.86
2389.00,54.90
2388.00,54.91
2387.00,54.91
2386.00,54.89
2385.00,54.87
2384.00,54.86
2383.00,54.84
2382.00,54.83
2381.00,54.83
2380.00,54.83
2379.00,54.84
2378.00,54.86
2377.00,54.88
2376.00,54.88
2375.00,54.90
2374.00,54.93
2373.00,54.97
2372.00,55.00
2371.00,55.03
2370.00,55.06
2369.00,55.08
2368.00,55.07
2367.00,55.08
2366.00,55.12
2365.00,55.19
2364.00,55.25
2363.00,55.25
2362.00,55.21
2361.00,55.21
2360.00,55.26
2359.00,55.33
2358.00,55.36
2357.00,55.34
2356.00,55.31
2355.00,55.30
2354.00,55.33
2353.00,55.38
2352.00,55.49
2351.00,55.68
2350.00,55.88
2349.00,55.97
2348.00,55.92
2347.00,55.76
2346.00,55.60
2345.00,55.54
2344.00,55.60
2343.00,55.70
2342.00,55.80
2341.00,55.86
2340.00,55.86
2339.00,55.83
2338.00,55.80
2337.00,55.79
2336.00,55.79
2335.00,55.79
2334.00,55.76
2333.00,55.71
2332.00,55.65
2331.00,55.64
2330.00,55.67
2329.00,55.72
2328.00,55.75
2327.00,55.78
2326.00,55.83
2325.00,55.92
2324.00,56.04
2323.00,56.13
2322.00,56.21
2321.00,56.26
2320.00,56.28
2319.00,56.28
2318.00,56.26
2317.00,56.26
2316.00,56.28
2315.00,56.32
2314.00,56.35
2313.00,56.36
2312.00,56.33
2311.00,56.29
2310.00,56.27
2309.00,56.26
2308.00,56.26
2307.00,56.25
2306.00,56.22
2305.00,56.21
2304.00,56.21
2303.00,56.23
2302.00,56.26
2301.00,56.27
2300.00,56.24
2299.00,56.22
2298.00,56.22
2297.00,56.26
2296.00,56.30
2295.00,56.32
2294.00,56.34
2293.00,56.36
2292.00,56.40
2291.00,56.44
2290.00,56.47
2289.00,56.50
2288.00,56.51
2287.00,56.53
2286.00,56.53
2285.00,56.51
2284.00,56.49
2283.00,56.45
2282.00,56.42
2281.00,56.39
2280.00,56.36
2279.00,56.33
2278.00,56.28
2277.00,56.23
2276.00,56.19
2275.00,56.14
2274.00,56.10
2273.00,56.05
2272.00,55.99
2271.00,55.95
2270.00,55.91
2269.00,55.88
2268.00,55.85
2267.00,55.83
2266.00,55.82
2265.00,55.83
2264.00,55.83
2263.00,55.81
2262.00,55.76
2261.00,55.69
2260.00,55.61
2259.00,55.55
2258.00,55.55
2257.00,55.60
2256.00,55.65
2255.00,55.69
2254.00,55.71
2253.00,55.71
2252.00,55.72
2251.00,55.77
2250.00,55.86
2249.00,55.98
2248.00,56.08
2247.00,56.14
2246.00,56.18
2245.00,56.21
2244.00,56.27
2243.00,56.31
2242.00,56.34
2241.00,56.33
2240.00,56.30
2239.00,56.29
2238.00,56.28
2237.00,56.27
2236.00,56.25
2235.00,56.22
2234.00,56.19
2233.00,56.20
2232.00,56.21
2231.00,56.22
2230.00,56.22
2229.00,56.21
2228.00,56.19
2227.00,56.17
2226.00,56.18
2225.00,56.23
2224.00,56.32
2223.00,56.41
2222.00,56.46
2221.00,56.49
2220.00,56.50
2219.00,56.49
2218.00,56.48
2217.00,56.46
2216.00,56.44
2215.00,56.43
2214.00,56.42
2213.00,56.40
2212.00,56.37
2211.00,56.34
2210.00,56.33
2209.00,56.34
2208.00,56.36
2207.00,56.35
2206.00,56.31
2205.00,56.28
2204.00,56.24
2203.00,56.19
2202.00,56.15
2201.00,56.13
2200.00,56.12
2199.00,56.12
2198.00,56.13
2197.00,56.12
2196.00,56.11
2195.00,56.09
2194.00,56.06
2193.00,56.03
2192.00,56.01
2191.00,55.98
2190.00,55.96
2189.00,55.94
2188.00,55.93
2187.00,55.94
2186.00,55.94
2185.00,55.94
2184.00,55.92
2183.00,55.91
2182.00,55.90
2181.00,55.89
2180.00,55.89
2179.00,55.89
2178.00,55.90
2177.00,55.91
2176.00,55.89
2175.00,55.85
2174.00,55.81
2173.00,55.78
2172.00,55.77
2171.00,55.77
2170.00,55.77
2169.00,55.80
2168.00,55.86
2167.00,55.93
2166.00,56.01
2165.00,56.09
2164.00,56.17
2163.00,56.24
2162.00,56.30
2161.00,56.34
2160.00,56.37
2159.00,56.37
2158.00,56.37
2157.00,56.40
2156.00,56.44
2155.00,56.48
2154.00,56.52
2153.00,56.60
2152.00,56.71
2151.00,56.82
2150.00,56.88
2149.00,56.91
2148.00,56.92
2147.00,56.94
2146.00,56.94
2145.00,56.93
2144.00,56.90
2143.00,56.86
2142.00,56.79
2141.00,56.71
2140.00,56.63
2139.00,56.58
2138.00,56.54
2137.00,56.49
2136.00,56.42
2135.00,56.35
2134.00,56.29
2133.00,56.23
2132.00,56.20
2131.00,56.21
2130.00,56.27
2129.00,56.35
2128.00,56.43
2127.00,56.52
2126.00,56.62
2125.00,56.75
2124.00,56.93
2123.00,57.13
2122.00,57.33
2121.00,57.52
2120.00,57.68
2119.00,57.80
2118.00,57.91
2117.00,57.99
2116.00,58.06
2115.00,58.12
2114.00,58.18
2113.00,58.24
2112.00,58.30
2111.00,58.35
2110.00,58.37
2109.00,58.36
2108.00,58.34
2107.00,58.32
2106.00,58.31
2105.00,58.31
2104.00,58.34
2103.00,58.38
2102.00,58.43
2101.00,58.45
2100.00,58.46
2099.00,58.45
2098.00,58.45
2097.00,58.45
2096.00,58.45
2095.00,58.47
2094.00,58.49
2093.00,58.52
2092.00,58.53
2091.00,58.51
2090.00,58.48
2089.00,58.47
2088.00,58.49
2087.00,58.54
2086.00,58.61
2085.00,58.70
2084.00,58.81
2083.00,58.93
2082.00,59.06
2081.00,59.20
2080.00,59.33
2079.00,59.48
2078.00,59.60
2077.00,59.70
2076.00,59.78
2075.00,59.85
2074.00,59.92
2073.00,60.01
2072.00,60.09
2071.00,60.17
2070.00,60.24
2069.00,60.31
2068.00,60.36
2067.00,60.40
2066.00,60.43
2065.00,60.45
2064.00,60.46
2063.00,60.45
2062.00,60.44
2061.00,60.43
2060.00,60.41
2059.00,60.37
2058.00,60.31
2057.00,60.25
2056.00,60.20
2055.00,60.16
2054.00,60.12
2053.00,60.11
2052.00,60.10
2051.00,60.09
2050.00,60.09
2049.00,60.10
2048.00,60.14
2047.00,60.17
2046.00,60.19
2045.00,60.18
2044.00,60.17
2043.00,60.18
2042.00,60.23
2041.00,60.28
2040.00,60.31
2039.00,60.31
2038.00,60.28
2037.00,60.25
2036.00,60.22
2035.00,60.22
2034.00,60.21
2033.00,60.19
2032.00,60.15
2031.00,60.13
2030.00,60.14
2029.00,60.17
2028.00,60.20
2027.00,60.21
2026.00,60.22
2025.00,60.26
2024.00,60.32
2023.00,60.38
2022.00,60.43
2021.00,60.44
2020.00,60.43
2019.00,60.42
2018.00,60.42
2017.00,60.45
2016.00,60.47
2015.00,60.49
2014.00,60.50
2013.00,60.52
2012.00,60.55
2011.00,60.56
2010.00,60.55
2009.00,60.52
2008.00,60.50
2007.00,60.50
2006.00,60.53
2005.00,60.55
2004.00,60.52
2003.00,60.44
2002.00,60.35
2001.00,60.27
2000.00,60.24
1999.00,60.23
1998.00,60.23
1997.00,60.21
1996.00,60.19
1995.00,60.17
1994.00,60.17
1993.00,60.17
1992.00,60.18
1991.00,60.20
1990.00,60.21
1989.00,60.23
1988.00,60.26
1987.00,60.31
1986.00,60.36
1985.00,60.41
1984.00,60.46
1983.00,60.50
1982.00,60.52
1981.00,60.52
1980.00,60.52
1979.00,60.54
1978.00,60.56
1977.00,60.57
1976.00,60.55
1975.00,60.54
1974.00,60.54
1973.00,60.55
1972.00,60.55
1971.00,60.53
1970.00,60.49
1969.00,60.45
1968.00,60.41
1967.00,60.38
1966.00,60.36
1965.00,60.35
1964.00,60.33
1963.00,60.30
1962.00,60.25
1961.00,60.20
1960.00,60.13
1959.00,60.08
1958.00,60.05
1957.00,60.04
1956.00,60.04
1955.00,60.02
1954.00,59.99
1953.00,59.98
1952.00,59.99
1951.00,60.02
1950.00,60.06
1949.00,60.09
1948.00,60.09
1947.00,60.08
1946.00,60.06
1945.00,60.06
1944.00,60.08
1943.00,60.11
1942.00,60.13
1941.00,60.12
1940.00,60.09
1939.00,60.05
1938.00,60.02
1937.00,60.00
1936.00,59.99
1935.00,59.98
1934.00,59.95
1933.00,59.92
1932.00,59.89
1931.00,59.84
1930.00,59.78
1929.00,59.70
1928.00,59.63
1927.00,59.56
1926.00,59.50
1925.00,59.46
1924.00,59.41
1923.00,59.34
1922.00,59.25
1921.00,59.16
1920.00,59.10
1919.00,59.08
1918.00,59.08
1917.00,59.08
1916.00,59.05
1915.00,59.01
1914.00,58.97
1913.00,58.93
1912.00,58.89
1911.00,58.87
1910.00,58.84
1909.00,58.82
1908.00,58.80
1907.00,58.78
1906.00,58.77
1905.00,58.78
1904.00,58.80
1903.00,58.80
1902.00,58.77
1901.00,58.72
1900.00,58.63
1899.00,58.53
1898.00,58.43
1897.00,58.34
1896.00,58.28
1895.00,58.26
1894.00,58.24
1893.00,58.22
1892.00,58.22
1891.00,58.26
1890.00,58.34
1889.00,58.48
1888.00,58.62
1887.00,58.74
1886.00,58.83
1885.00,58.92
1884.00,59.01
1883.00,59.09
1882.00,59.15
1881.00,59.21
1880.00,59.26
1879.00,59.29
1878.00,59.32
1877.00,59.35
1876.00,59.40
1875.00,59.46
1874.00,59.51
1873.00,59.51
1872.00,59.49
1871.00,59.47
1870.00,59.47
1869.00,59.47
1868.00,59.47
1867.00,59.45
1866.00,59.42
1865.00,59.37
1864.00,59.33
1863.00,59.30
1862.00,59.25
1861.00,59.20
1860.00,59.15
1859.00,59.11
1858.00,59.08
1857.00,59.04
1856.00,59.02
1855.00,58.98
1854.00,58.93
1853.00,58.86
1852.00,58.81
1851.00,58.79
1850.00,58.79
1849.00,58.78
1848.00,58.76
1847.00,58.74
1846.00,58.74
1845.00,58.75
1844.00,58.72
1843.00,58.66
1842.00,58.60
1841.00,58.56
1840.00,58.55
1839.00,58.54
1838.00,58.49
1837.00,58.42
1836.00,58.35
1835.00,58.27
1834.00,58.20
1833.00,58.12
1832.00,58.07
1831.00,58.06
1830.00,58.10
1829.00,58.18
1828.00,58.28
1827.00,58.40
1826.00,58.53
1825.00,58.67
1824.00,58.81
1823.00,58.95
1822.00,59.07
1821.00,59.15
1820.00,59.17
1819.00,59.15
1818.00,59.14
1817.00,59.16
1816.00,59.22
1815.00,59.30
1814.00,59.36
1813.00,59.37
1812.00,59.36
1811.00,59.37
1810.00,59.40
1809.00,59.43
1808.00,59.46
1807.00,59.47
1806.00,59.45
1805.00,59.40
1804.00,59.35
1803.00,59.30
1802.00,59.26
1801.00,59.21
1800.00,59.14
1799.00,59.08
1798.00,59.03
1797.00,59.00
1796.00,58.99
1795.00,58.98
1794.00,58.97
1793.00,58.94
1792.00,58.90
1791.00,58.82
1790.00,58.73
1789.00,58.65
1788.00,58.61
1787.00,58.59
1786.00,58.56
1785.00,58.51
1784.00,58.45
1783.00,58.42
1782.00,58.41
1781.00,58.39
1780.00,58.37
1779.00,58.33
1778.00,58.30
1777.00,58.27
1776.00,58.25
1775.00,58.23
1774.00,58.21
1773.00,58.14
1772.00,58.03
1771.00,57.94
1770.00,57.89
1769.00,57.87
1768.00,57.84
1767.00,57.79
1766.00,57.76
1765.00,57.76
1764.00,57.78
1763.00,57.77
1762.00,57.70
1761.00,57.58
1760.00,57.46
1759.00,57.39
1758.00,57.36
1757.00,57.34
1756.00,57.28
1755.00,57.23
1754.00,57.22
1753.00,57.24
1752.00,57.23
1751.00,57.15
1750.00,56.99
1749.00,56.80
1748.00,56.60
1747.00,56.43
1746.00,56.29
1745.00,56.16
1744.00,56.05
1743.00,55.96
1742.00,55.93
1741.00,55.93
1740.00,55.97
1739.00,56.02
1738.00,56.08
1737.00,56.16
1736.00,56.27
1735.00,56.38
1734.00,56.46
1733.00,56.47
1732.00,56.43
1731.00,56.43
1730.00,56.47
1729.00,56.51
1728.00,56.53
1727.00,56.51
1726.00,56.46
1725.00,56.40
1724.00,56.33
1723.00,56.26
1722.00,56.19
1721.00,56.12
1720.00,56.06
1719.00,56.01
1718.00,55.94
1717.00,55.85
1716.00,55.76
1715.00,55.67
1714.00,55.60
1713.00,55.53
1712.00,55.46
1711.00,55.39
1710.00,55.32
1709.00,55.25
1708.00,55.20
1707.00,55.16
1706.00,55.10
1705.00,55.05
1704.00,55.04
1703.00,55.06
1702.00,55.05
1701.00,54.96
1700.00,54.81
1699.00,54.71
1698.00,54.67
1697.00,54.67
1696.00,54.65
1695.00,54.61
1694.00,54.56
1693.00,54.55
1692.00,54.57
1691.00,54.58
1690.00,54.56
1689.00,54.52
1688.00,54.48
1687.00,54.48
1686.00,54.47
1685.00,54.43
1684.00,54.35
1683.00,54.30
1682.00,54.31
1681.00,54.36
1680.00,54.40
1679.00,54.38
1678.00,54.35
1677.00,54.33
1676.00,54.32
1675.00,54.33
1674.00,54.34
1673.00,54.33
1672.00,54.29
1671.00,54.25
1670.00,54.24
1669.00,54.27
1668.00,54.33
1667.00,54.37
1666.00,54.38
1665.00,54.37
1664.00,54.34
1663.00,54.31
1662.00,54.29
1661.00,54.28
1660.00,54.25
1659.00,54.17
1658.00,54.09
1657.00,54.03
1656.00,54.03
1655.00,54.04
1654.00,54.04
1653.00,53.97
1652.00,53.91
1651.00,53.82
1650.00,53.80
1649.00,53.79
1648.00,53.78
1647.00,53.76
1646.00,53.74
1645.00,53.74
1644.00,53.74
1643.00,53.73
1642.00,53.72
1641.00,53.70
1640.00,53.68
1639.00,53.66
1638.00,53.65
1637.00,53.65
1636.00,53.67
1635.00,53.70
1634.00,53.73
1633.00,53.74
1632.00,53.74
1631.00,53.73
1630.00,53.70
1629.00,53.67
1628.00,53.66
1627.00,53.69
1626.00,53.75
1625.00,53.83
1624.00,53.88
1623.00,53.88
1622.00,53.87
1621.00,53.86
1620.00,53.87
1619.00,53.88
1618.00,53.90
1617.00,53.90
1616.00,53.90
1615.00,53.92
1614.00,53.98
1613.00,54.07
1612.00,54.16
1611.00,54.22
1610.00,54.25
1609.00,54.27
1608.00,54.28
1607.00,54.29
1606.00,54.31
1605.00,54.35
1604.00,54.41
1603.00,54.45
1602.00,54.47
1601.00,54.47
1600.00,54.46
1599.00,54.44
1598.00,54.42
1597.00,54.39
1596.00,54.36
1595.00,54.33
1594.00,54.33
1593.00,54.34
1592.00,54.32
1591.00,54.28
1590.00,54.24
1589.00,54.22
1588.00,54.20
1587.00,54.20
1586.00,54.20
1585.00,54.20
1584.00,54.18
1583.00,54.13
1582.00,54.08
1581.00,54.02
1580.00,53.96
1579.00,53.90
1578.00,53.87
1577.00,53.87
1576.00,53.90
1575.00,53.95
1574.00,53.99
1573.00,54.03
1572.00,54.08
1571.00,54.13
1570.00,54.19
1569.00,54.26
1568.00,54.29
1567.00,54.28
1566.00,54.29
1565.00,54.32
1564.00,54.36
1563.00,54.39
1562.00,54.42
1561.00,54.43
1560.00,54.37
1559.00,54.27
1558.00,54.25
1557.00,54.26
1556.00,54.30
1555.00,54.31
1554.00,54.30
1553.00,54.28
1552.00,54.29
1551.00,54.33
1550.00,54.33
1549.00,54.29
1548.00,54.21
1547.00,54.15
1546.00,54.12
1545.00,54.10
1544.00,54.05
1543.00,53.95
1542.00,53.81
1541.00,53.68
1540.00,53.65
1539.00,53.72
1538.00,53.83
1537.00,53.92
1536.00,54.01
1535.00,54.07
1534.00,54.08
1533.00,54.05
1532.00,54.03
1531.00,54.03
1530.00,54.02
1529.00,54.01
1528.00,54.00
1527.00,53.97
1526.00,53.91
1525.00,53.84
1524.00,53.80
1523.00,53.81
1522.00,53.85
1521.00,53.91
1520.00,53.95
1519.00,53.94
1518.00,53.91
1517.00,53.85
1516.00,53.81
1515.00,53.79
1514.00,53.80
1513.00,53.79
1512.00,53.76
1511.00,53.72
1510.00,53.69
1509.00,53.65
1508.00,53.59
1507.00,53.50
1506.00,53.42
1505.00,53.40
1504.00,53.42
1503.00,53.47
1502.00,53.52
1501.00,53.53
1500.00,53.53
1499.00,53.54
1498.00,53.56
1497.00,53.54
1496.00,53.45
1495.00,53.35
1494.00,53.29
1493.00,53.28
1492.00,53.33
1491.00,53.38
1490.00,53.39
1489.00,53.35
1488.00,53.31
1487.00,53.27
1486.00,53.22
1485.00,53.20
1484.00,53.21
1483.00,53.26
1482.00,53.31
1481.00,53.32
1480.00,53.29
1479.00,53.24
1478.00,53.17
1477.00,53.09
1476.00,53.04
1475.00,53.02
1474.00,53.03
1473.00,53.02
1472.00,53.01
1471.00,52.99
1470.00,52.98
1469.00,52.99
1468.00,53.01
1467.00,53.03
1466.00,53.03
1465.00,53.00
1464.00,52.94
1463.00,52.91
1462.00,52.91
1461.00,52.91
1460.00,52.90
1459.00,52.86
1458.00,52.80
1457.00,52.73
1456.00,52.70
1455.00,52.71
1454.00,52.77
1453.00,52.86
1452.00,52.93
1451.00,52.97
1450.00,52.99
1449.00,52.98
1448.00,52.96
1447.00,52.96
1446.00,53.00
1445.00,53.04
1444.00,53.08
1443.00,53.11
1442.00,53.12
1441.00,53.14
1440.00,53.16
1439.00,53.21
1438.00,53.23
1437.00,53.19
1436.00,53.13
1435.00,53.10
1434.00,53.09
1433.00,53.09
1432.00,53.06
1431.00,53.01
1430.00,52.95
1429.00,52.91
1428.00,52.89
1427.00,52.90
1426.00,52.93
1425.00,52.96
1424.00,52.97
1423.00,52.99
1422.00,53.04
1421.00,53.08
1420.00,53.06
1419.00,52.98
1418.00,52.90
1417.00,52.85
1416.00,52.84
1415.00,52.83
1414.00,52.83
1413.00,52.80
1412.00,52.75
1411.00,52.71
1410.00,52.70
1409.00,52.71
1408.00,52.75
1407.00,52.81
1406.00,52.85
1405.00,52.85
1404.00,52.78
1403.00,52.70
1402.00,52.65
1401.00,52.65
1400.00,52.67
1399.00,52.69
1398.00,52.70
1397.00,52.66
1396.00,52.56
1395.00,52.43
1394.00,52.33
1393.00,52.28
1392.00,52.27
1391.00,52.27
1390.00,52.28
1389.00,52.27
1388.00,52.26
1387.00,52.23
1386.00,52.19
1385.00,52.12
1384.00,52.05
1383.00,51.98
1382.00,51.95
1381.00,51.94
1380.00,51.95
1379.00,51.98
1378.00,52.00
1377.00,52.02
1376.00,52.04
1375.00,52.07
1374.00,52.08
1373.00,52.06
1372.00,52.01
1371.00,51.95
1370.00,51.92
1369.00,51.93
1368.00,51.93
1367.00,51.92
1366.00,51.88
1365.00,51.83
1364.00,51.77
1363.00,51.73
1362.00,51.72
1361.00,51.74
1360.00,51.75
1359.00,51.75
1358.00,51.74
1357.00,51.72
1356.00,51.70
1355.00,51.66
1354.00,51.62
1353.00,51.59
1352.00,51.57
1351.00,51.57
1350.00,51.58
1349.00,51.60
1348.00,51.61
1347.00,51.61
1346.00,51.60
1345.00,51.59
1344.00,51.57
1343.00,51.53
1342.00,51.50
1341.00,51.50
1340.00,51.54
1339.00,51.57
1338.00,51.58
1337.00,51.54
1336.00,51.51
1335.00,51.51
1334.00,51.53
1333.00,51.53
1332.00,51.49
1331.00,51.44
1330.00,51.40
1329.00,51.38
1328.00,51.36
1327.00,51.33
1326.00,51.33
1325.00,51.36
1324.00,51.41
1323.00,51.43
1322.00,51.42
1321.00,51.40
1320.00,51.41
1319.00,51.46
1318.00,51.52
1317.00,51.57
1316.00,51.60
1315.00,51.60
1314.00,51.58
1313.00,51.54
1312.00,51.48
1311.00,51.40
1310.00,51.34
1309.00,51.28
1308.00,51.24
1307.00,51.20
1306.00,51.19
1305.00,51.19
1304.00,51.21
1303.00,51.22
1302.00,51.23
1301.00,51.23
1300.00,51.22
1299.00,51.22
1298.00,51.22
1297.00,51.24
1296.00,51.25
1295.00,51.26
1294.00,51.28
1293.00,51.29
1292.00,51.31
1291.00,51.31
1290.00,51.32
1289.00,51.32
1288.00,51.31
1287.00,51.30
1286.00,51.30
1285.00,51.34
1284.00,51.39
1283.00,51.41
1282.00,51.39
1281.00,51.35
1280.00,51.32
1279.00,51.33
1278.00,51.36
1277.00,51.37
1276.00,51.34
1275.00,51.29
1274.00,51.25
1273.00,51.24
1272.00,51.27
1271.00,51.32
1270.00,51.39
1269.00,51.43
1268.00,51.43
1267.00,51.40
1266.00,51.33
1265.00,51.23
1264.00,51.10
1263.00,50.97
1262.00,50.90
1261.00,50.88
1260.00,50.90
1259.00,50.93
1258.00,50.97
1257.00,51.01
1256.00,51.04
1255.00,51.06
1254.00,51.05
1253.00,51.05
1252.00,51.07
1251.00,51.12
1250.00,51.19
1249.00,51.23
1248.00,51.23
1247.00,51.20
1246.00,51.16
1245.00,51.13
1244.00,51.15
1243.00,51.22
1242.00,51.33
1241.00,51.43
1240.00,51.49
1239.00,51.49
1238.00,51.47
1237.00,51.45
1236.00,51.43
1235.00,51.42
1234.00,51.41
1233.00,51.42
1232.00,51.44
1231.00,51.45
1230.00,51.45
1229.00,51.44
1228.00,51.44
1227.00,51.45
1226.00,51.46
1225.00,51.43
1224.00,51.35
1223.00,51.26
1222.00,51.18
1221.00,51.17
1220.00,51.19
1219.00,51.22
1218.00,51.23
1217.00,51.23
1216.00,51.25
1215.00,51.29
1214.00,51.36
1213.00,51.45
1212.00,51.53
1211.00,51.59
1210.00,51.62
1209.00,51.61
1208.00,51.59
1207.00,51.56
1206.00,51.57
1205.00,51.62
1204.00,51.69
1203.00,51.73
1202.00,51.75
1201.00,51.74
1200.00,51.73
1199.00,51.74
1198.00,51.75
1197.00,51.78
1196.00,51.80
1195.00,51.82
1194.00,51.82
1193.00,51.81
1192.00,51.80
1191.00,51.80
1190.00,51.78
1189.00,51.75
1188.00,51.73
1187.00,51.73
1186.00,51.73
1185.00,51.74
1184.00,51.72
1183.00,51.70
1182.00,51.66
1181.00,51.62
1180.00,51.58
1179.00,51.53
1178.00,51.47
1177.00,51.39
1176.00,51.32
1175.00,51.29
1174.00,51.30
1173.00,51.32
1172.00,51.36
1171.00,51.40
1170.00,51.45
1169.00,51.48
1168.00,51.48
1167.00,51.47
1166.00,51.48
1165.00,51.53
1164.00,51.60
1163.00,51.67
1162.00,51.71
1161.00,51.71
1160.00,51.67
1159.00,51.64
1158.00,51.63
1157.00,51.65
1156.00,51.67
1155.00,51.70
1154.00,51.71
1153.00,51.71
1152.00,51.66
1151.00,51.59
1150.00,51.55
1149.00,51.56
1148.00,51.59
1147.00,51.63
1146.00,51.69
1145.00,51.78
1144.00,51.87
1143.00,51.96
1142.00,52.01
1141.00,52.07
1140.00,52.11
1139.00,52.16
1138.00,52.21
1137.00,52.29
1136.00,52.39
1135.00,52.48
1134.00,52.55
1133.00,52.61
1132.00,52.71
1131.00,52.82
1130.00,52.90
1129.00,52.94
1128.00,52.97
1127.00,53.03
1126.00,53.14
1125.00,53.25
1124.00,53.31
1123.00,53.30
1122.00,53.24
1121.00,53.18
1120.00,53.16
1119.00,53.17
1118.00,53.20
1117.00,53.24
1116.00,53.28
1115.00,53.29
1114.00,53.20
1113.00,53.06
1112.00,52.91
1111.00,52.81
1110.00,52.74
1109.00,52.66
1108.00,52.58
1107.00,52.49
1106.00,52.42
1105.00,52.40
1104.00,52.40
1103.00,52.42
1102.00,52.44
1101.00,52.45
1100.00,52.49
1099.00,52.58
1098.00,52.69
1097.00,52.81
1096.00,52.94
1095.00,53.08
1094.00,53.21
1093.00,53.30
1092.00,53.35
1091.00,53.40
1090.00,53.47
1089.00,53.55
1088.00,53.65
1087.00,53.76
1086.00,53.90
1085.00,54.02
1084.00,54.07
1083.00,54.04
1082.00,54.01
1081.00,54.03
1080.00,54.12
1079.00,54.23
1078.00,54.28
1077.00,54.23
1076.00,54.13
1075.00,54.09
1074.00,54.17
1073.00,54.32
1072.00,54.45
1071.00,54.51
1070.00,54.49
1069.00,54.44
1068.00,54.40
1067.00,54.40
1066.00,54.38
1065.00,54.31
1064.00,54.20
1063.00,54.10
1062.00,54.08
1061.00,54.13
1060.00,54.20
1059.00,54.22
1058.00,54.16
1057.00,54.05
1056.00,53.92
1055.00,53.78
1054.00,53.64
1053.00,53.49
1052.00,53.34
1051.00,53.20
1050.00,53.04
1049.00,52.87
1048.00,52.70
1047.00,52.57
1046.00,52.49
1045.00,52.45
1044.00,52.43
1043.00,52.44
1042.00,52.51
1041.00,52.63
1040.00,52.71
1039.00,52.75
1038.00,52.78
1037.00,52.83
1036.00,52.89
1035.00,52.93
1034.00,52.95
1033.00,53.00
1032.00,53.07
1031.00,53.11
1030.00,53.08
1029.00,53.01
1028.00,52.94
1027.00,52.89
1026.00,52.83
1025.00,52.79
1024.00,52.78
1023.00,52.81
1022.00,52.81
1021.00,52.73
1020.00,52.59
1019.00,52.45
1018.00,52.34
1017.00,52.28
1016.00,52.25
1015.00,52.20
1014.00,52.09
1013.00,51.95
1012.00,51.81
1011.00,51.73
1010.00,51.69
1009.00,51.65
1008.00,51.58
1007.00,51.52
1006.00,51.47
1005.00,51.46
1004.00,51.49
1003.00,51.57
1002.00,51.64
1001.00,51.67
1000.00,51.66
999.00,51.64
998.00,51.64
997.00,51.66
996.00,51.67
995.00,51.69
994.00,51.73
993.00,51.79
992.00,51.84
991.00,51.85
990.00,51.81
989.00,51.75
988.00,51.70
987.00,51.69
986.00,51.72
985.00,51.78
984.00,51.82
983.00,51.82
982.00,51.81
981.00,51.81
980.00,51.83
979.00,51.82
978.00,51.75
977.00,51.68
976.00,51.63
975.00,51.62
974.00,51.64
973.00,51.66
972.00,51.67
971.00,51.66
970.00,51.62
969.00,51.56
968.00,51.52
967.00,51.52
966.00,51.57
965.00,51.64
964.00,51.74
963.00,51.86
962.00,51.96
961.00,52.03
960.00,52.06
959.00,52.08
958.00,52.11
957.00,52.15
956.00,52.23
955.00,52.40
954.00,52.63
953.00,52.86
952.00,52.99
951.00,53.00
950.00,52.94
949.00,52.88
948.00,52.85
947.00,52.87
946.00,52.92
945.00,52.95
944.00,52.89
943.00,52.74
942.00,52.55
941.00,52.38
940.00,52.28
939.00,52.34
938.00,52.59
937.00,53.03
936.00,53.50
935.00,53.89
934.00,54.13
933.00,54.26
932.00,54.34
931.00,54.38
930.00,54.41
929.00,54.47
928.00,54.57
927.00,54.70
926.00,54.79
925.00,54.83
924.00,54.83
923.00,54.81
922.00,54.77
921.00,54.70
920.00,54.61
919.00,54.52
918.00,54.44
917.00,54.37
916.00,54.31
915.00,54.26
914.00,54.18
913.00,54.01
912.00,53.72
911.00,53.39
910.00,53.10
909.00,52.91
908.00,52.74
907.00,52.56
906.00,52.37
905.00,52.18
904.00,51.98
903.00,51.77
902.00,51.61
901.00,51.54
900.00,51.57
899.00,51.67
898.00,51.77
897.00,51.82
896.00,51.86
895.00,51.95
894.00,52.14
893.00,52.40
892.00,52.63
891.00,52.77
890.00,52.82
889.00,52.83
888.00,52.85
887.00,52.90
886.00,52.97
885.00,53.08
884.00,53.20
883.00,53.27
882.00,53.26
881.00,53.20
880.00,53.11
879.00,53.02
878.00,52.93
877.00,52.93
876.00,53.02
875.00,53.15
874.00,53.20
873.00,53.11
872.00,52.94
871.00,52.80
870.00,52.69
869.00,52.60
868.00,52.48
867.00,52.36
866.00,52.27
865.00,52.19
864.00,52.15
863.00,52.16
862.00,52.23
861.00,52.31
860.00,52.33
859.00,52.27
858.00,52.14
857.00,51.96
856.00,51.79
855.00,51.71
854.00,51.74
853.00,51.85
852.00,51.91
851.00,51.90
850.00,51.83
849.00,51.78
848.00,51.76
847.00,51.75
846.00,51.76
845.00,51.78
844.00,51.78
843.00,51.72
842.00,51.64
841.00,51.62
840.00,51.67
839.00,51.72
838.00,51.71
837.00,51.70
836.00,51.75
835.00,51.83
834.00,51.87
833.00,51.85
832.00,51.82
831.00,51.85
830.00,51.93
829.00,52.07
828.00,52.24
827.00,52.44
826.00,52.62
825.00,52.71
824.00,52.68
823.00,52.58
822.00,52.45
821.00,52.33
820.00,52.22
819.00,52.13
818.00,52.07
817.00,52.04
816.00,52.04
815.00,52.01
814.00,51.94
813.00,51.82
812.00,51.66
811.00,51.50
810.00,51.39
809.00,51.38
808.00,51.46
807.00,51.58
806.00,51.69
805.00,51.74
804.00,51.76
803.00,51.77
802.00,51.80
801.00,51.87
800.00,52.01
799.00,52.20
798.00,52.40
797.00,52.54
796.00,52.63
795.00,52.71
794.00,52.84
793.00,53.05
792.00,53.34
791.00,53.66
790.00,53.95
789.00,54.21
788.00,54.49
787.00,54.83
786.00,55.23
785.00,55.65
784.00,56.09
783.00,56.53
782.00,56.92
781.00,57.18
780.00,57.30
779.00,57.33
778.00,57.38
777.00,57.55
776.00,57.83
775.00,58.16
774.00,58.45
773.00,58.65
772.00,58.78
771.00,58.88
770.00,59.02
769.00,59.21
768.00,59.40
767.00,59.53
766.00,59.58
765.00,59.59
764.00,59.60
763.00,59.65
762.00,59.73
761.00,59.84
760.00,59.95
759.00,60.04
758.00,60.08
757.00,60.12
756.00,60.21
755.00,60.36
754.00,60.54
753.00,60.69
752.00,60.75
751.00,60.71
750.00,60.61
749.00,60.54
748.00,60.57
747.00,60.71
746.00,60.88
745.00,61.01
744.00,61.08
743.00,61.09
742.00,61.06
741.00,61.00
740.00,60.95
739.00,60.96
738.00,61.01
737.00,61.08
736.00,61.13
735.00,61.17
734.00,61.18
733.00,61.16
732.00,61.11
731.00,61.06
730.00,61.05
729.00,61.08
728.00,61.13
727.00,61.16
726.00,61.16
725.00,61.09
724.00,60.95
723.00,60.77
722.00,60.63
721.00,60.65
720.00,60.83
719.00,61.08
718.00,61.30
717.00,61.46
716.00,61.60
715.00,61.73
714.00,61.80
713.00,61.78
712.00,61.71
711.00,61.68
710.00,61.73
709.00,61.89
708.00,62.16
707.00,62.45
706.00,62.65
705.00,62.66
704.00,62.49
703.00,62.30
702.00,62.22
701.00,62.27
700.00,62.36
699.00,62.43
698.00,62.46
697.00,62.46
696.00,62.45
695.00,62.43
694.00,62.39
693.00,62.34
692.00,62.30
691.00,62.32
690.00,62.40
689.00,62.52
688.00,62.60
687.00,62.59
686.00,62.52
685.00,62.51
684.00,62.60
683.00,62.74
682.00,62.84
681.00,62.86
680.00,62.82
679.00,62.77
678.00,62.71
677.00,62.68
676.00,62.69
675.00,62.76
674.00,62.82
673.00,62.79
672.00,62.66
671.00,62.51
670.00,62.53
669.00,63.05
668.00,63.94
667.00,64.35
666.00,64.03
665.00,63.49
664.00,63.05
663.00,62.87
662.00,62.94
661.00,63.11
660.00,63.20
659.00,63.21
658.00,63.23
657.00,63.33
656.00,63.52
655.00,63.69
654.00,63.77
653.00,63.73
652.00,63.61
651.00,63.49
650.00,63.45
