Created as New Dataset,
cm-1,ARB
4000.00,68.39
3999.00,68.43
3998.00,68.47
3997.00,68.52
3996.00,68.57
3995.00,68.66
3994.00,68.76
3993.00,68.87
3992.00,68.95
3991.00,68.99
3990.00,69.02
3989.00,69.08
3988.00,69.19
3987.00,69.31
3986.00,69.41
3985.00,69.47
3984.00,69.48
3983.00,69.45
3982.00,69.41
3981.00,69.38
3980.00,69.37
3979.00,69.36
3978.00,69.34
3977.00,69.31
3976.00,69.27
3975.00,69.23
3974.00,69.24
3973.00,69.30
3972.00,69.39
3971.00,69.46
3970.00,69.47
3969.00,69.43
3968.00,69.41
3967.00,69.43
3966.00,69.48
3965.00,69.54
3964.00,69.59
3963.00,69.64
3962.00,69.68
3961.00,69.70
3960.00,69.70
3959.00,69.68
3958.00,69.67
3957.00,69.67
3956.00,69.69
3955.00,69.71
3954.00,69.72
3953.00,69.74
3952.00,69.76
3951.00,69.78
3950.00,69.77
3949.00,69.70
3948.00,69.62
3947.00,69.56
3946.00,69.55
3945.00,69.55
3944.00,69.52
3943.00,69.48
3942.00,69.48
3941.00,69.53
3940.00,69.59
3939.00,69.62
3938.00,69.63
3937.00,69.62
3936.00,69.63
3935.00,69.63
3934.00,69.63
3933.00,69.63
3932.00,69.66
3931.00,69.71
3930.00,69.74
3929.00,69.73
3928.00,69.70
3927.00,69.68
3926.00,69.68
3925.00,69.69
3924.00,69.71
3923.00,69.72
3922.00,69.71
3921.00,69.70
3920.00,69.73
3919.00,69.79
3918.00,69.86
3917.00,69.92
3916.00,69.97
3915.00,70.04
3914.00,70.10
3913.00,70.16
3912.00,70.22
3911.00,70.25
3910.00,70.23
3909.00,70.15
3908.00,70.04
3907.00,69.96
3906.00,69.93
3905.00,69.93
3904.00,69.94
3903.00,69.96
3902.00,69.98
3901.00,69.99
3900.00,70.00
3899.00,70.02
3898.00,70.06
3897.00,70.09
3896.00,70.12
3895.00,70.15
3894.00,70.21
3893.00,70.26
3892.00,70.26
3891.00,70.23
3890.00,70.24
3889.00,70.29
3888.00,70.30
3887.00,70.24
3886.00,70.18
3885.00,70.21
3884.00,70.36
3883.00,70.47
3882.00,70.43
3881.00,70.29
3880.00,70.17
3879.00,70.17
3878.00,70.27
3877.00,70.37
3876.00,70.38
3875.00,70.31
3874.00,70.28
3873.00,70.37
3872.00,70.49
3871.00,70.50
3870.00,70.39
3869.00,70.30
3868.00,70.32
3867.00,70.34
3866.00,70.28
3865.00,70.21
3864.00,70.25
3863.00,70.37
3862.00,70.46
3861.00,70.50
3860.00,70.46
3859.00,70.38
3858.00,70.30
3857.00,70.29
3856.00,70.38
3855.00,70.51
3854.00,70.61
3853.00,70.68
3852.00,70.72
3851.00,70.70
3850.00,70.61
3849.00,70.50
3848.00,70.42
3847.00,70.37
3846.00,70.32
3845.00,70.29
3844.00,70.26
3843.00,70.25
3842.00,70.29
3841.00,70.37
3840.00,70.42
3839.00,70.43
3838.00,70.42
3837.00,70.42
3836.00,70.43
3835.00,70.43
3834.00,70.40
3833.00,70.31
3832.00,70.19
3831.00,70.08
3830.00,70.00
3829.00,69.95
3828.00,69.89
3827.00,69.81
3826.00,69.77
3825.00,69.84
3824.00,70.00
3823.00,70.15
3822.00,70.18
3821.00,70.13
3820.00,70.13
3819.00,70.19
3818.00,70.22
3817.00,70.14
3816.00,70.01
3815.00,69.94
3814.00,69.92
3813.00,69.86
3812.00,69.78
3811.00,69.77
3810.00,69.86
3809.00,69.97
3808.00,70.01
3807.00,70.00
3806.00,70.06
3805.00,70.21
3804.00,70.34
3803.00,70.36
3802.00,70.27
3801.00,70.23
3800.00,70.30
3799.00,70.36
3798.00,70.30
3797.00,70.15
3796.00,70.03
3795.00,70.03
3794.00,70.12
3793.00,70.20
3792.00,70.25
3791.00,70.28
3790.00,70.30
3789.00,70.33
3788.00,70.36
3787.00,70.39
3786.00,70.40
3785.00,70.39
3784.00,70.39
3783.00,70.43
3782.00,70.50
3781.00,70.56
3780.00,70.60
3779.00,70.62
3778.00,70.65
3777.00,70.68
3776.00,70.68
3775.00,70.66
3774.00,70.62
3773.00,70.59
3772.00,70.54
3771.00,70.47
3770.00,70.44
3769.00,70.51
3768.00,70.64
3767.00,70.72
3766.00,70.69
3765.00,70.59
3764.00,70.52
3763.00,70.51
3762.00,70.52
3761.00,70.53
3760.00,70.58
3759.00,70.70
3758.00,70.82
3757.00,70.89
3756.00,70.96
3755.00,71.04
3754.00,71.12
3753.00,71.20
3752.00,71.29
3751.00,71.38
3750.00,71.40
3749.00,71.35
3748.00,71.37
3747.00,71.45
3746.00,71.50
3745.00,71.41
3744.00,71.30
3743.00,71.30
3742.00,71.35
3741.00,71.32
3740.00,71.27
3739.00,71.25
3738.00,71.21
3737.00,71.12
3736.00,71.03
3735.00,71.03
3734.00,71.10
3733.00,71.14
3732.00,71.11
3731.00,71.08
3730.00,71.09
3729.00,71.11
3728.00,71.05
3727.00,70.89
3726.00,70.73
3725.00,70.65
3724.00,70.63
3723.00,70.60
3722.00,70.59
3721.00,70.59
3720.00,70.63
3719.00,70.70
3718.00,70.79
3717.00,70.92
3716.00,71.06
3715.00,71.18
3714.00,71.25
3713.00,71.28
3712.00,71.33
3711.00,71.41
3710.00,71.46
3709.00,71.44
3708.00,71.35
3707.00,71.22
3706.00,71.07
3705.00,70.95
3704.00,70.84
3703.00,70.75
3702.00,70.69
3701.00,70.70
3700.00,70.78
3699.00,70.92
3698.00,71.06
3697.00,71.14
3696.00,71.19
3695.00,71.24
3694.00,71.31
3693.00,71.41
3692.00,71.55
3691.00,71.69
3690.00,71.80
3689.00,71.83
3688.00,71.80
3687.00,71.75
3686.00,71.69
3685.00,71.61
3684.00,71.53
3683.00,71.49
3682.00,71.49
3681.00,71.47
3680.00,71.43
3679.00,71.47
3678.00,71.63
3677.00,71.78
3676.00,71.78
3675.00,71.67
3674.00,71.64
3673.00,71.72
3672.00,71.83
3671.00,71.88
3670.00,71.87
3669.00,71.86
3668.00,71.86
3667.00,71.84
3666.00,71.83
3665.00,71.82
3664.00,71.82
3663.00,71.79
3662.00,71.71
3661.00,71.60
3660.00,71.49
3659.00,71.41
3658.00,71.31
3657.00,71.13
3656.00,70.93
3655.00,70.81
3654.00,70.82
3653.00,70.87
3652.00,70.89
3651.00,70.80
3650.00,70.61
3649.00,70.41
3648.00,70.23
3647.00,70.15
3646.00,70.18
3645.00,70.32
3644.00,70.51
3643.00,70.72
3642.00,70.92
3641.00,71.13
3640.00,71.35
3639.00,71.57
3638.00,71.77
3637.00,71.99
3636.00,72.20
3635.00,72.34
3634.00,72.42
3633.00,72.49
3632.00,72.63
3631.00,72.77
3630.00,72.78
3629.00,72.63
3628.00,72.42
3627.00,72.26
3626.00,72.14
3625.00,72.03
3624.00,71.94
3623.00,71.88
3622.00,71.88
3621.00,71.91
3620.00,71.95
3619.00,72.00
3618.00,72.09
3617.00,72.23
3616.00,72.41
3615.00,72.59
3614.00,72.78
3613.00,72.96
3612.00,73.15
3611.00,73.37
3610.00,73.58
3609.00,73.75
3608.00,73.85
3607.00,73.91
3606.00,73.95
3605.00,74.01
3604.00,74.09
3603.00,74.18
3602.00,74.25
3601.00,74.31
3600.00,74.36
3599.00,74.40
3598.00,74.40
3597.00,74.38
3596.00,74.36
3595.00,74.36
3594.00,74.38
3593.00,74.42
3592.00,74.47
3591.00,74.54
3590.00,74.60
3589.00,74.62
3588.00,74.62
3587.00,74.65
3586.00,74.72
3585.00,74.81
3584.00,74.88
3583.00,74.93
3582.00,74.97
3581.00,75.01
3580.00,75.06
3579.00,75.14
3578.00,75.23
3577.00,75.33
3576.00,75.40
3575.00,75.43
3574.00,75.45
3573.00,75.47
3572.00,75.51
3571.00,75.58
3570.00,75.68
3569.00,75.80
3568.00,75.88
3567.00,75.91
3566.00,75.91
3565.00,75.92
3564.00,75.93
3563.00,75.92
3562.00,75.88
3561.00,75.82
3560.00,75.78
3559.00,75.76
3558.00,75.78
3557.00,75.82
3556.00,75.88
3555.00,75.95
3554.00,76.02
3553.00,76.09
3552.00,76.12
3551.00,76.11
3550.00,76.06
3549.00,75.99
3548.00,75.92
3547.00,75.85
3546.00,75.81
3545.00,75.84
3544.00,75.90
3543.00,75.95
3542.00,75.98
3541.00,75.97
3540.00,75.97
3539.00,75.99
3538.00,76.01
3537.00,76.03
3536.00,76.03
3535.00,76.03
3534.00,76.03
3533.00,76.03
3532.00,76.02
3531.00,76.01
3530.00,76.01
3529.00,76.03
3528.00,76.04
3527.00,76.04
3526.00,76.01
3525.00,75.97
3524.00,75.92
3523.00,75.89
3522.00,75.88
3521.00,75.89
3520.00,75.89
3519.00,75.87
3518.00,75.82
3517.00,75.77
3516.00,75.74
3515.00,75.75
3514.00,75.78
3513.00,75.83
3512.00,75.89
3511.00,75.93
3510.00,75.93
3509.00,75.90
3508.00,75.87
3507.00,75.87
3506.00,75.89
3505.00,75.90
3504.00,75.91
3503.00,75.90
3502.00,75.90
3501.00,75.88
3500.00,75.85
3499.00,75.81
3498.00,75.75
3497.00,75.72
3496.00,75.72
3495.00,75.75
3494.00,75.78
3493.00,75.77
3492.00,75.74
3491.00,75.72
3490.00,75.71
3489.00,75.70
3488.00,75.67
3487.00,75.64
3486.00,75.62
3485.00,75.61
3484.00,75.61
3483.00,75.60
3482.00,75.58
3481.00,75.55
3480.00,75.49
3479.00,75.44
3478.00,75.41
3477.00,75.42
3476.00,75.43
3475.00,75.44
3474.00,75.45
3473.00,75.47
3472.00,75.48
3471.00,75.47
3470.00,75.46
3469.00,75.44
3468.00,75.44
3467.00,75.43
3466.00,75.40
3465.00,75.37
3464.00,75.35
3463.00,75.34
3462.00,75.35
3461.00,75.35
3460.00,75.34
3459.00,75.32
3458.00,75.32
3457.00,75.34
3456.00,75.37
3455.00,75.39
3454.00,75.38
3453.00,75.36
3452.00,75.34
3451.00,75.32
3450.00,75.31
3449.00,75.32
3448.00,75.33
3447.00,75.30
3446.00,75.24
3445.00,75.16
3444.00,75.08
3443.00,75.01
3442.00,74.97
3441.00,74.98
3440.00,75.04
3439.00,75.14
3438.00,75.24
3437.00,75.30
3436.00,75.33
3435.00,75.34
3434.00,75.37
3433.00,75.41
3432.00,75.47
3431.00,75.53
3430.00,75.58
3429.00,75.63
3428.00,75.69
3427.00,75.77
3426.00,75.85
3425.00,75.94
3424.00,76.01
3423.00,76.06
3422.00,76.09
3421.00,76.11
3420.00,76.13
3419.00,76.18
3418.00,76.23
3417.00,76.29
3416.00,76.36
3415.00,76.40
3414.00,76.41
3413.00,76.36
3412.00,76.29
3411.00,76.25
3410.00,76.25
3409.00,76.25
3408.00,76.25
3407.00,76.27
3406.00,76.33
3405.00,76.40
3404.00,76.43
3403.00,76.42
3402.00,76.39
3401.00,76.37
3400.00,76.37
3399.00,76.39
3398.00,76.40
3397.00,76.40
3396.00,76.40
3395.00,76.38
3394.00,76.36
3393.00,76.35
3392.00,76.36
3391.00,76.39
3390.00,76.42
3389.00,76.44
3388.00,76.47
3387.00,76.52
3386.00,76.58
3385.00,76.64
3384.00,76.66
3383.00,76.65
3382.00,76.62
3381.00,76.57
3380.00,76.53
3379.00,76.53
3378.00,76.57
3377.00,76.66
3376.00,76.75
3375.00,76.82
3374.00,76.86
3373.00,76.87
3372.00,76.86
3371.00,76.84
3370.00,76.84
3369.00,76.87
3368.00,76.90
3367.00,76.92
3366.00,76.91
3365.00,76.89
3364.00,76.87
3363.00,76.86
3362.00,76.87
3361.00,76.88
3360.00,76.90
3359.00,76.90
3358.00,76.89
3357.00,76.87
3356.00,76.85
3355.00,76.84
3354.00,76.82
3353.00,76.81
3352.00,76.82
3351.00,76.84
3350.00,76.85
3349.00,76.84
3348.00,76.82
3347.00,76.81
3346.00,76.79
3345.00,76.77
3344.00,76.72
3343.00,76.68
3342.00,76.66
3341.00,76.67
3340.00,76.69
3339.00,76.70
3338.00,76.69
3337.00,76.66
3336.00,76.63
3335.00,76.59
3334.00,76.55
3333.00,76.50
3332.00,76.44
3331.00,76.40
3330.00,76.39
3329.00,76.41
3328.00,76.43
3327.00,76.43
3326.00,76.41
3325.00,76.38
3324.00,76.36
3323.00,76.36
3322.00,76.36
3321.00,76.37
3320.00,76.35
3319.00,76.35
3318.00,76.35
3317.00,76.35
3316.00,76.35
3315.00,76.32
3314.00,76.30
3313.00,76.31
3312.00,76.35
3311.00,76.41
3310.00,76.46
3309.00,76.48
3308.00,76.46
3307.00,76.41
3306.00,76.33
3305.00,76.24
3304.00,76.19
3303.00,76.20
3302.00,76.25
3301.00,76.30
3300.00,76.31
3299.00,76.27
3298.00,76.23
3297.00,76.20
3296.00,76.18
3295.00,76.16
3294.00,76.13
3293.00,76.10
3292.00,76.08
3291.00,76.08
3290.00,76.07
3289.00,76.06
3288.00,76.05
3287.00,76.01
3286.00,75.94
3285.00,75.86
3284.00,75.78
3283.00,75.75
3282.00,75.75
3281.00,75.75
3280.00,75.74
3279.00,75.70
3278.00,75.68
3277.00,75.69
3276.00,75.70
3275.00,75.70
3274.00,75.66
3273.00,75.59
3272.00,75.54
3271.00,75.50
3270.00,75.48
3269.00,75.46
3268.00,75.43
3267.00,75.39
3266.00,75.34
3265.00,75.29
3264.00,75.25
3263.00,75.22
3262.00,75.20
3261.00,75.19
3260.00,75.17
3259.00,75.14
3258.00,75.12
3257.00,75.11
3256.00,75.08
3255.00,75.03
3254.00,74.94
3253.00,74.88
3252.00,74.87
3251.00,74.90
3250.00,74.92
3249.00,74.91
3248.00,74.90
3247.00,74.89
3246.00,74.88
3245.00,74.85
3244.00,74.81
3243.00,74.76
3242.00,74.71
3241.00,74.67
3240.00,74.62
3239.00,74.60
3238.00,74.59
3237.00,74.59
3236.00,74.60
3235.00,74.58
3234.00,74.54
3233.00,74.48
3232.00,74.42
3231.00,74.38
3230.00,74.36
3229.00,74.33
3228.00,74.31
3227.00,74.29
3226.00,74.26
3225.00,74.22
3224.00,74.16
3223.00,74.10
3222.00,74.04
3221.00,73.99
3220.00,73.94
3219.00,73.90
3218.00,73.87
3217.00,73.85
3216.00,73.85
3215.00,73.84
3214.00,73.81
3213.00,73.75
3212.00,73.67
3211.00,73.59
3210.00,73.51
3209.00,73.45
3208.00,73.39
3207.00,73.30
3206.00,73.15
3205.00,72.98
3204.00,72.85
3203.00,72.79
3202.00,72.77
3201.00,72.73
3200.00,72.67
3199.00,72.59
3198.00,72.53
3197.00,72.49
3196.00,72.45
3195.00,72.44
3194.00,72.45
3193.00,72.47
3192.00,72.48
3191.00,72.46
3190.00,72.44
3189.00,72.41
3188.00,72.37
3187.00,72.32
3186.00,72.29
3185.00,72.26
3184.00,72.24
3183.00,72.20
3182.00,72.16
3181.00,72.13
3180.00,72.11
3179.00,72.11
3178.00,72.09
3177.00,72.03
3176.00,71.94
3175.00,71.85
3174.00,71.77
3173.00,71.69
3172.00,71.59
3171.00,71.46
3170.00,71.30
3169.00,71.13
3168.00,70.94
3167.00,70.73
3166.00,70.51
3165.00,70.33
3164.00,70.22
3163.00,70.18
3162.00,70.20
3161.00,70.25
3160.00,70.34
3159.00,70.47
3158.00,70.63
3157.00,70.77
3156.00,70.86
3155.00,70.91
3154.00,70.94
3153.00,70.96
3152.00,70.98
3151.00,70.99
3150.00,70.99
3149.00,70.98
3148.00,70.96
3147.00,70.96
3146.00,70.95
3145.00,70.92
3144.00,70.87
3143.00,70.81
3142.00,70.76
3141.00,70.71
3140.00,70.67
3139.00,70.63
3138.00,70.62
3137.00,70.60
3136.00,70.57
3135.00,70.50
3134.00,70.40
3133.00,70.30
3132.00,70.23
3131.00,70.18
3130.00,70.14
3129.00,70.09
3128.00,70.01
3127.00,69.91
3126.00,69.82
3125.00,69.75
3124.00,69.69
3123.00,69.60
3122.00,69.50
3121.00,69.39
3120.00,69.28
3119.00,69.18
3118.00,69.07
3117.00,68.96
3116.00,68.88
3115.00,68.85
3114.00,68.84
3113.00,68.82
3112.00,68.76
3111.00,68.71
3110.00,68.68
3109.00,68.68
3108.00,68.67
3107.00,68.66
3106.00,68.65
3105.00,68.65
3104.00,68.65
3103.00,68.66
3102.00,68.67
3101.00,68.68
3100.00,68.68
3099.00,68.68
3098.00,68.67
3097.00,68.64
3096.00,68.59
3095.00,68.54
3094.00,68.51
3093.00,68.51
3092.00,68.52
3091.00,68.55
3090.00,68.58
3089.00,68.61
3088.00,68.61
3087.00,68.56
3086.00,68.52
3085.00,68.50
3084.00,68.51
3083.00,68.52
3082.00,68.51
3081.00,68.47
3080.00,68.44
3079.00,68.44
3078.00,68.47
3077.00,68.53
3076.00,68.57
3075.00,68.57
3074.00,68.54
3073.00,68.54
3072.00,68.58
3071.00,68.64
3070.00,68.69
3069.00,68.70
3068.00,68.66
3067.00,68.60
3066.00,68.55
3065.00,68.52
3064.00,68.52
3063.00,68.54
3062.00,68.56
3061.00,68.55
3060.00,68.54
3059.00,68.54
3058.00,68.54
3057.00,68.55
3056.00,68.54
3055.00,68.53
3054.00,68.53
3053.00,68.53
3052.00,68.53
3051.00,68.51
3050.00,68.48
3049.00,68.46
3048.00,68.47
3047.00,68.49
3046.00,68.50
3045.00,68.46
3044.00,68.40
3043.00,68.35
3042.00,68.32
3041.00,68.32
3040.00,68.34
3039.00,68.37
3038.00,68.39
3037.00,68.39
3036.00,68.42
3035.00,68.45
3034.00,68.46
3033.00,68.44
3032.00,68.38
3031.00,68.31
3030.00,68.27
3029.00,68.28
3028.00,68.33
3027.00,68.38
3026.00,68.41
3025.00,68.41
3024.00,68.40
3023.00,68.41
3022.00,68.43
3021.00,68.45
3020.00,68.45
3019.00,68.45
3018.00,68.41
3017.00,68.36
3016.00,68.29
3015.00,68.25
3014.00,68.25
3013.00,68.26
3012.00,68.28
3011.00,68.29
3010.00,68.31
3009.00,68.33
3008.00,68.33
3007.00,68.31
3006.00,68.29
3005.00,68.27
3004.00,68.26
3003.00,68.26
3002.00,68.28
3001.00,68.32
3000.00,68.34
2999.00,68.35
2998.00,68.35
2997.00,68.35
2996.00,68.35
2995.00,68.34
2994.00,68.32
2993.00,68.32
2992.00,68.36
2991.00,68.40
2990.00,68.40
2989.00,68.36
2988.00,68.30
2987.00,68.26
2986.00,68.26
2985.00,68.29
2984.00,68.30
2983.00,68.30
2982.00,68.28
2981.00,68.26
2980.00,68.26
2979.00,68.27
2978.00,68.28
2977.00,68.27
2976.00,68.25
2975.00,68.26
2974.00,68.29
2973.00,68.35
2972.00,68.39
2971.00,68.42
2970.00,68.43
2969.00,68.44
2968.00,68.43
2967.00,68.42
2966.00,68.41
2965.00,68.41
2964.00,68.42
2963.00,68.42
2962.00,68.41
2961.00,68.39
2960.00,68.38
2959.00,68.39
2958.00,68.42
2957.00,68.46
2956.00,68.50
2955.00,68.53
2954.00,68.53
2953.00,68.52
2952.00,68.51
2951.00,68.50
2950.00,68.50
2949.00,68.50
2948.00,68.49
2947.00,68.48
2946.00,68.47
2945.00,68.50
2944.00,68.55
2943.00,68.58
2942.00,68.59
2941.00,68.58
2940.00,68.57
2939.00,68.57
2938.00,68.60
2937.00,68.65
2936.00,68.70
2935.00,68.74
2934.00,68.76
2933.00,68.77
2932.00,68.81
2931.00,68.91
2930.00,69.02
2929.00,69.10
2928.00,69.14
2927.00,69.12
2926.00,69.08
2925.00,69.04
2924.00,69.05
2923.00,69.13
2922.00,69.25
2921.00,69.35
2920.00,69.42
2919.00,69.48
2918.00,69.53
2917.00,69.59
2916.00,69.61
2915.00,69.58
2914.00,69.51
2913.00,69.40
2912.00,69.27
2911.00,69.15
2910.00,69.05
2909.00,68.97
2908.00,68.90
2907.00,68.83
2906.00,68.77
2905.00,68.73
2904.00,68.71
2903.00,68.69
2902.00,68.68
2901.00,68.68
2900.00,68.67
2899.00,68.64
2898.00,68.61
2897.00,68.60
2896.00,68.59
2895.00,68.59
2894.00,68.56
2893.00,68.51
2892.00,68.46
2891.00,68.45
2890.00,68.47
2889.00,68.51
2888.00,68.53
2887.00,68.52
2886.00,68.48
2885.00,68.42
2884.00,68.40
2883.00,68.41
2882.00,68.44
2881.00,68.47
2880.00,68.47
2879.00,68.45
2878.00,68.43
2877.00,68.40
2876.00,68.37
2875.00,68.36
2874.00,68.36
2873.00,68.37
2872.00,68.39
2871.00,68.42
2870.00,68.45
2869.00,68.48
2868.00,68.49
2867.00,68.48
2866.00,68.46
2865.00,68.44
2864.00,68.43
2863.00,68.41
2862.00,68.40
2861.00,68.40
2860.00,68.39
2859.00,68.40
2858.00,68.41
2857.00,68.43
2856.00,68.46
2855.00,68.51
2854.00,68.59
2853.00,68.70
2852.00,68.80
2851.00,68.88
2850.00,68.91
2849.00,68.91
2848.00,68.88
2847.00,68.84
2846.00,68.76
2845.00,68.67
2844.00,68.55
2843.00,68.42
2842.00,68.32
2841.00,68.29
2840.00,68.29
2839.00,68.30
2838.00,68.28
2837.00,68.24
2836.00,68.20
2835.00,68.18
2834.00,68.20
2833.00,68.21
2832.00,68.21
2831.00,68.19
2830.00,68.15
2829.00,68.13
2828.00,68.12
2827.00,68.13
2826.00,68.16
2825.00,68.20
2824.00,68.24
2823.00,68.26
2822.00,68.25
2821.00,68.23
2820.00,68.20
2819.00,68.18
2818.00,68.17
2817.00,68.17
2816.00,68.17
2815.00,68.19
2814.00,68.20
2813.00,68.20
2812.00,68.19
2811.00,68.18
2810.00,68.16
2809.00,68.14
2808.00,68.14
2807.00,68.17
2806.00,68.21
2805.00,68.25
2804.00,68.28
2803.00,68.30
2802.00,68.29
2801.00,68.28
2800.00,68.27
2799.00,68.28
2798.00,68.29
2797.00,68.32
2796.00,68.37
2795.00,68.42
2794.00,68.46
2793.00,68.47
2792.00,68.46
2791.00,68.44
2790.00,68.44
2789.00,68.47
2788.00,68.54
2787.00,68.60
2786.00,68.62
2785.00,68.60
2784.00,68.54
2783.00,68.50
2782.00,68.47
2781.00,68.47
2780.00,68.49
2779.00,68.52
2778.00,68.56
2777.00,68.60
2776.00,68.63
2775.00,68.67
2774.00,68.72
2773.00,68.78
2772.00,68.83
2771.00,68.88
2770.00,68.92
2769.00,68.97
2768.00,69.02
2767.00,69.06
2766.00,69.11
2765.00,69.14
2764.00,69.15
2763.00,69.15
2762.00,69.14
2761.00,69.15
2760.00,69.17
2759.00,69.19
2758.00,69.19
2757.00,69.19
2756.00,69.20
2755.00,69.21
2754.00,69.22
2753.00,69.23
2752.00,69.26
2751.00,69.28
2750.00,69.31
2749.00,69.34
2748.00,69.36
2747.00,69.37
2746.00,69.39
2745.00,69.39
2744.00,69.37
2743.00,69.34
2742.00,69.30
2741.00,69.27
2740.00,69.23
2739.00,69.20
2738.00,69.17
2737.00,69.15
2736.00,69.13
2735.00,69.09
2734.00,69.04
2733.00,68.99
2732.00,68.96
2731.00,68.93
2730.00,68.88
2729.00,68.82
2728.00,68.78
2727.00,68.79
2726.00,68.83
2725.00,68.88
2724.00,68.91
2723.00,68.90
2722.00,68.87
2721.00,68.84
2720.00,68.81
2719.00,68.80
2718.00,68.80
2717.00,68.81
2716.00,68.80
2715.00,68.80
2714.00,68.82
2713.00,68.85
2712.00,68.90
2711.00,68.94
2710.00,68.96
2709.00,68.97
2708.00,68.95
2707.00,68.93
2706.00,68.92
2705.00,68.93
2704.00,68.96
2703.00,68.96
2702.00,68.92
2701.00,68.86
2700.00,68.82
2699.00,68.81
2698.00,68.81
2697.00,68.81
2696.00,68.81
2695.00,68.81
2694.00,68.83
2693.00,68.86
2692.00,68.89
2691.00,68.93
2690.00,68.97
2689.00,68.98
2688.00,68.96
2687.00,68.91
2686.00,68.85
2685.00,68.80
2684.00,68.76
2683.00,68.75
2682.00,68.77
2681.00,68.81
2680.00,68.85
2679.00,68.88
2678.00,68.88
2677.00,68.85
2676.00,68.80
2675.00,68.76
2674.00,68.74
2673.00,68.75
2672.00,68.76
2671.00,68.76
2670.00,68.77
2669.00,68.79
2668.00,68.83
2667.00,68.86
2666.00,68.87
2665.00,68.87
2664.00,68.85
2663.00,68.85
2662.00,68.86
2661.00,68.87
2660.00,68.86
2659.00,68.84
2658.00,68.83
2657.00,68.84
2656.00,68.85
2655.00,68.86
2654.00,68.85
2653.00,68.84
2652.00,68.84
2651.00,68.85
2650.00,68.85
2649.00,68.84
2648.00,68.80
2647.00,68.75
2646.00,68.72
2645.00,68.72
2644.00,68.75
2643.00,68.78
2642.00,68.79
2641.00,68.77
2640.00,68.73
2639.00,68.68
2638.00,68.61
2637.00,68.52
2636.00,68.42
2635.00,68.34
2634.00,68.29
2633.00,68.27
2632.00,68.29
2631.00,68.33
2630.00,68.39
2629.00,68.44
2628.00,68.49
2627.00,68.53
2626.00,68.55
2625.00,68.57
2624.00,68.61
2623.00,68.67
2622.00,68.73
2621.00,68.76
2620.00,68.77
2619.00,68.78
2618.00,68.80
2617.00,68.84
2616.00,68.88
2615.00,68.92
2614.00,68.93
2613.00,68.91
2612.00,68.85
2611.00,68.78
2610.00,68.70
2609.00,68.62
2608.00,68.55
2607.00,68.49
2606.00,68.43
2605.00,68.37
2604.00,68.33
2603.00,68.30
2602.00,68.30
2601.00,68.32
2600.00,68.36
2599.00,68.41
2598.00,68.47
2597.00,68.54
2596.00,68.62
2595.00,68.73
2594.00,68.84
2593.00,68.94
2592.00,69.00
2591.00,69.03
2590.00,69.02
2589.00,68.99
2588.00,68.94
2587.00,68.87
2586.00,68.78
2585.00,68.70
2584.00,68.63
2583.00,68.60
2582.00,68.60
2581.00,68.63
2580.00,68.66
2579.00,68.70
2578.00,68.73
2577.00,68.77
2576.00,68.83
2575.00,68.90
2574.00,69.01
2573.00,69.12
2572.00,69.20
2571.00,69.24
2570.00,69.24
2569.00,69.25
2568.00,69.26
2567.00,69.26
2566.00,69.24
2565.00,69.23
2564.00,69.24
2563.00,69.28
2562.00,69.32
2561.00,69.35
2560.00,69.35
2559.00,69.33
2558.00,69.30
2557.00,69.28
2556.00,69.30
2555.00,69.33
2554.00,69.33
2553.00,69.32
2552.00,69.28
2551.00,69.24
2550.00,69.20
2549.00,69.17
2548.00,69.15
2547.00,69.15
2546.00,69.15
2545.00,69.17
2544.00,69.21
2543.00,69.25
2542.00,69.29
2541.00,69.31
2540.00,69.33
2539.00,69.34
2538.00,69.35
2537.00,69.37
2536.00,69.40
2535.00,69.44
2534.00,69.45
2533.00,69.44
2532.00,69.43
2531.00,69.45
2530.00,69.50
2529.00,69.53
2528.00,69.51
2527.00,69.44
2526.00,69.34
2525.00,69.27
2524.00,69.23
2523.00,69.22
2522.00,69.20
2521.00,69.18
2520.00,69.16
2519.00,69.16
2518.00,69.17
2517.00,69.18
2516.00,69.18
2515.00,69.18
2514.00,69.19
2513.00,69.19
2512.00,69.18
2511.00,69.15
2510.00,69.12
2509.00,69.08
2508.00,69.08
2507.00,69.11
2506.00,69.15
2505.00,69.20
2504.00,69.25
2503.00,69.30
2502.00,69.33
2501.00,69.35
2500.00,69.35
2499.00,69.36
2498.00,69.37
2497.00,69.39
2496.00,69.40
2495.00,69.42
2494.00,69.45
2493.00,69.50
2492.00,69.54
2491.00,69.57
2490.00,69.59
2489.00,69.61
2488.00,69.64
2487.00,69.66
2486.00,69.69
2485.00,69.71
2484.00,69.73
2483.00,69.76
2482.00,69.79
2481.00,69.84
2480.00,69.88
2479.00,69.93
2478.00,69.96
2477.00,70.00
2476.00,70.05
2475.00,70.10
2474.00,70.13
2473.00,70.16
2472.00,70.19
2471.00,70.25
2470.00,70.34
2469.00,70.44
2468.00,70.55
2467.00,70.65
2466.00,70.72
2465.00,70.76
2464.00,70.77
2463.00,70.77
2462.00,70.77
2461.00,70.76
2460.00,70.76
2459.00,70.74
2458.00,70.73
2457.00,70.71
2456.00,70.69
2455.00,70.67
2454.00,70.66
2453.00,70.66
2452.00,70.65
2451.00,70.65
2450.00,70.67
2449.00,70.71
2448.00,70.74
2447.00,70.77
2446.00,70.78
2445.00,70.78
2444.00,70.79
2443.00,70.78
2442.00,70.78
2441.00,70.78
2440.00,70.80
2439.00,70.83
2438.00,70.87
2437.00,70.91
2436.00,70.93
2435.00,70.95
2434.00,70.96
2433.00,70.97
2432.00,70.99
2431.00,71.02
2430.00,71.04
2429.00,71.08
2428.00,71.13
2427.00,71.18
2426.00,71.21
2425.00,71.20
2424.00,71.18
2423.00,71.15
2422.00,71.15
2421.00,71.16
2420.00,71.17
2419.00,71.17
2418.00,71.18
2417.00,71.20
2416.00,71.21
2415.00,71.21
2414.00,71.16
2413.00,71.07
2412.00,70.97
2411.00,70.91
2410.00,70.91
2409.00,70.95
2408.00,70.99
2407.00,70.99
2406.00,70.96
2405.00,70.92
2404.00,70.88
2403.00,70.84
2402.00,70.79
2401.00,70.74
2400.00,70.71
2399.00,70.71
2398.00,70.72
2397.00,70.75
2396.00,70.77
2395.00,70.77
2394.00,70.76
2393.00,70.72
2392.00,70.67
2391.00,70.63
2390.00,70.60
2389.00,70.60
2388.00,70.61
2387.00,70.61
2386.00,70.61
2385.00,70.59
2384.00,70.55
2383.00,70.51
2382.00,70.45
2381.00,70.38
2380.00,70.30
2379.00,70.23
2378.00,70.18
2377.00,70.17
2376.00,70.19
2375.00,70.22
2374.00,70.24
2373.00,70.23
2372.00,70.18
2371.00,70.12
2370.00,70.11
2369.00,70.16
2368.00,70.24
2367.00,70.33
2366.00,70.39
2365.00,70.39
2364.00,70.32
2363.00,70.22
2362.00,70.13
2361.00,70.09
2360.00,70.08
2359.00,70.06
2358.00,70.07
2357.00,70.08
2356.00,70.01
2355.00,69.77
2354.00,69.45
2353.00,69.29
2352.00,69.50
2351.00,69.99
2350.00,70.40
2349.00,70.42
2348.00,69.99
2347.00,69.34
2346.00,68.86
2345.00,68.65
2344.00,68.68
2343.00,68.71
2342.00,68.71
2341.00,68.67
2340.00,68.60
2339.00,68.53
2338.00,68.46
2337.00,68.48
2336.00,68.58
2335.00,68.74
2334.00,68.87
2333.00,69.01
2332.00,69.15
2331.00,69.37
2330.00,69.53
2329.00,69.71
2328.00,69.87
2327.00,70.03
2326.00,70.08
2325.00,70.03
2324.00,70.00
2323.00,70.00
2322.00,70.00
2321.00,69.94
2320.00,69.82
2319.00,69.67
2318.00,69.50
2317.00,69.34
2316.00,69.17
2315.00,69.02
2314.00,68.85
2313.00,68.73
2312.00,68.67
2311.00,68.73
2310.00,68.84
2309.00,69.01
2308.00,69.21
2307.00,69.46
2306.00,69.73
2305.00,69.99
2304.00,70.20
2303.00,70.36
2302.00,70.43
2301.00,70.47
2300.00,70.49
2299.00,70.52
2298.00,70.54
2297.00,70.54
2296.00,70.52
2295.00,70.50
2294.00,70.51
2293.00,70.56
2292.00,70.63
2291.00,70.70
2290.00,70.75
2289.00,70.79
2288.00,70.84
2287.00,70.91
2286.00,70.98
2285.00,71.05
2284.00,71.11
2283.00,71.18
2282.00,71.25
2281.00,71.32
2280.00,71.37
2279.00,71.39
2278.00,71.37
2277.00,71.34
2276.00,71.31
2275.00,71.30
2274.00,71.30
2273.00,71.30
2272.00,71.29
2271.00,71.25
2270.00,71.20
2269.00,71.15
2268.00,71.11
2267.00,71.06
2266.00,71.02
2265.00,70.98
2264.00,70.94
2263.00,70.92
2262.00,70.87
2261.00,70.81
2260.00,70.74
2259.00,70.70
2258.00,70.67
2257.00,70.67
2256.00,70.68
2255.00,70.70
2254.00,70.73
2253.00,70.78
2252.00,70.81
2251.00,70.82
2250.00,70.83
2249.00,70.85
2248.00,70.91
2247.00,70.99
2246.00,71.10
2245.00,71.20
2244.00,71.30
2243.00,71.37
2242.00,71.42
2241.00,71.45
2240.00,71.48
2239.00,71.50
2238.00,71.52
2237.00,71.55
2236.00,71.59
2235.00,71.63
2234.00,71.68
2233.00,71.72
2232.00,71.75
2231.00,71.76
2230.00,71.76
2229.00,71.77
2228.00,71.80
2227.00,71.85
2226.00,71.90
2225.00,71.92
2224.00,71.93
2223.00,71.94
2222.00,71.95
2221.00,71.97
2220.00,72.01
2219.00,72.03
2218.00,72.03
2217.00,72.01
2216.00,72.00
2215.00,71.99
2214.00,71.99
2213.00,71.98
2212.00,71.98
2211.00,71.99
2210.00,72.01
2209.00,72.01
2208.00,72.03
2207.00,72.08
2206.00,72.16
2205.00,72.24
2204.00,72.28
2203.00,72.30
2202.00,72.33
2201.00,72.35
2200.00,72.38
2199.00,72.39
2198.00,72.39
2197.00,72.38
2196.00,72.36
2195.00,72.34
2194.00,72.33
2193.00,72.33
2192.00,72.33
2191.00,72.29
2190.00,72.20
2189.00,72.11
2188.00,72.04
2187.00,72.02
2186.00,72.04
2185.00,72.06
2184.00,72.08
2183.00,72.13
2182.00,72.19
2181.00,72.27
2180.00,72.36
2179.00,72.44
2178.00,72.52
2177.00,72.57
2176.00,72.63
2175.00,72.68
2174.00,72.75
2173.00,72.83
2172.00,72.89
2171.00,72.93
2170.00,72.97
2169.00,73.00
2168.00,73.04
2167.00,73.07
2166.00,73.08
2165.00,73.10
2164.00,73.12
2163.00,73.14
2162.00,73.15
2161.00,73.15
2160.00,73.16
2159.00,73.18
2158.00,73.18
2157.00,73.18
2156.00,73.18
2155.00,73.18
2154.00,73.17
2153.00,73.15
2152.00,73.13
2151.00,73.14
2150.00,73.15
2149.00,73.18
2148.00,73.22
2147.00,73.26
2146.00,73.29
2145.00,73.29
2144.00,73.27
2143.00,73.26
2142.00,73.28
2141.00,73.33
2140.00,73.39
2139.00,73.47
2138.00,73.55
2137.00,73.59
2136.00,73.62
2135.00,73.65
2134.00,73.69
2133.00,73.73
2132.00,73.76
2131.00,73.78
2130.00,73.78
2129.00,73.79
2128.00,73.80
2127.00,73.80
2126.00,73.79
2125.00,73.77
2124.00,73.75
2123.00,73.74
2122.00,73.74
2121.00,73.73
2120.00,73.71
2119.00,73.70
2118.00,73.70
2117.00,73.72
2116.00,73.75
2115.00,73.81
2114.00,73.87
2113.00,73.93
2112.00,73.96
2111.00,73.95
2110.00,73.93
2109.00,73.91
2108.00,73.91
2107.00,73.91
2106.00,73.93
2105.00,73.97
2104.00,74.03
2103.00,74.11
2102.00,74.18
2101.00,74.21
2100.00,74.20
2099.00,74.17
2098.00,74.13
2097.00,74.13
2096.00,74.17
2095.00,74.23
2094.00,74.28
2093.00,74.32
2092.00,74.35
2091.00,74.37
2090.00,74.38
2089.00,74.40
2088.00,74.41
2087.00,74.40
2086.00,74.37
2085.00,74.37
2084.00,74.38
2083.00,74.42
2082.00,74.45
2081.00,74.45
2080.00,74.43
2079.00,74.41
2078.00,74.39
2077.00,74.36
2076.00,74.32
2075.00,74.30
2074.00,74.28
2073.00,74.26
2072.00,74.24
2071.00,74.24
2070.00,74.25
2069.00,74.27
2068.00,74.27
2067.00,74.24
2066.00,74.19
2065.00,74.15
2064.00,74.12
2063.00,74.10
2062.00,74.09
2061.00,74.08
2060.00,74.07
2059.00,74.08
2058.00,74.09
2057.00,74.09
2056.00,74.08
2055.00,74.08
2054.00,74.09
2053.00,74.11
2052.00,74.13
2051.00,74.16
2050.00,74.18
2049.00,74.19
2048.00,74.18
2047.00,74.15
2046.00,74.12
2045.00,74.10
2044.00,74.08
2043.00,74.07
2042.00,74.05
2041.00,74.02
2040.00,73.96
2039.00,73.88
2038.00,73.79
2037.00,73.70
2036.00,73.63
2035.00,73.60
2034.00,73.56
2033.00,73.52
2032.00,73.46
2031.00,73.40
2030.00,73.37
2029.00,73.37
2028.00,73.38
2027.00,73.39
2026.00,73.41
2025.00,73.44
2024.00,73.47
2023.00,73.49
2022.00,73.47
2021.00,73.43
2020.00,73.40
2019.00,73.37
2018.00,73.32
2017.00,73.26
2016.00,73.18
2015.00,73.11
2014.00,73.05
2013.00,72.98
2012.00,72.90
2011.00,72.82
2010.00,72.74
2009.00,72.66
2008.00,72.61
2007.00,72.59
2006.00,72.58
2005.00,72.56
2004.00,72.54
2003.00,72.50
2002.00,72.44
2001.00,72.36
2000.00,72.28
1999.00,72.19
1998.00,72.07
1997.00,71.92
1996.00,71.76
1995.00,71.59
1994.00,71.40
1993.00,71.18
1992.00,70.93
1991.00,70.67
1990.00,70.44
1989.00,70.24
1988.00,70.08
1987.00,69.94
1986.00,69.84
1985.00,69.77
1984.00,69.74
1983.00,69.76
1982.00,69.79
1981.00,69.82
1980.00,69.83
1979.00,69.82
1978.00,69.78
1977.00,69.73
1976.00,69.64
1975.00,69.49
1974.00,69.30
1973.00,69.08
1972.00,68.87
1971.00,68.67
1970.00,68.46
1969.00,68.26
1968.00,68.09
1967.00,67.94
1966.00,67.84
1965.00,67.76
1964.00,67.70
1963.00,67.66
1962.00,67.63
1961.00,67.61
1960.00,67.61
1959.00,67.60
1958.00,67.60
1957.00,67.61
1956.00,67.60
1955.00,67.58
1954.00,67.55
1953.00,67.53
1952.00,67.53
1951.00,67.53
1950.00,67.54
1949.00,67.54
1948.00,67.54
1947.00,67.52
1946.00,67.50
1945.00,67.50
1944.00,67.52
1943.00,67.55
1942.00,67.55
1941.00,67.51
1940.00,67.47
1939.00,67.45
1938.00,67.47
1937.00,67.53
1936.00,67.62
1935.00,67.67
1934.00,67.69
1933.00,67.68
1932.00,67.71
1931.00,67.80
1930.00,67.90
1929.00,67.99
1928.00,68.09
1927.00,68.19
1926.00,68.31
1925.00,68.44
1924.00,68.57
1923.00,68.71
1922.00,68.84
1921.00,68.97
1920.00,69.13
1919.00,69.32
1918.00,69.50
1917.00,69.64
1916.00,69.72
1915.00,69.80
1914.00,69.88
1913.00,69.96
1912.00,70.03
1911.00,70.07
1910.00,70.07
1909.00,70.04
1908.00,69.98
1907.00,69.90
1906.00,69.79
1905.00,69.64
1904.00,69.49
1903.00,69.36
1902.00,69.24
1901.00,69.09
1900.00,68.92
1899.00,68.74
1898.00,68.53
1897.00,68.34
1896.00,68.18
1895.00,68.06
1894.00,67.97
1893.00,67.88
1892.00,67.82
1891.00,67.78
1890.00,67.75
1889.00,67.70
1888.00,67.67
1887.00,67.65
1886.00,67.61
1885.00,67.57
1884.00,67.55
1883.00,67.55
1882.00,67.54
1881.00,67.53
1880.00,67.52
1879.00,67.52
1878.00,67.51
1877.00,67.49
1876.00,67.48
1875.00,67.49
1874.00,67.48
1873.00,67.45
1872.00,67.42
1871.00,67.41
1870.00,67.41
1869.00,67.41
1868.00,67.42
1867.00,67.46
1866.00,67.51
1865.00,67.55
1864.00,67.56
1863.00,67.57
1862.00,67.57
1861.00,67.58
1860.00,67.64
1859.00,67.79
1858.00,67.96
1857.00,68.13
1856.00,68.31
1855.00,68.53
1854.00,68.77
1853.00,69.01
1852.00,69.22
1851.00,69.39
1850.00,69.52
1849.00,69.64
1848.00,69.75
1847.00,69.86
1846.00,69.95
1845.00,70.08
1844.00,70.23
1843.00,70.36
1842.00,70.42
1841.00,70.41
1840.00,70.38
1839.00,70.34
1838.00,70.27
1837.00,70.16
1836.00,70.03
1835.00,69.91
1834.00,69.78
1833.00,69.64
1832.00,69.47
1831.00,69.27
1830.00,69.05
1829.00,68.84
1828.00,68.66
1827.00,68.51
1826.00,68.37
1825.00,68.24
1824.00,68.14
1823.00,68.07
1822.00,68.00
1821.00,67.92
1820.00,67.83
1819.00,67.77
1818.00,67.74
1817.00,67.71
1816.00,67.69
1815.00,67.68
1814.00,67.68
1813.00,67.69
1812.00,67.69
1811.00,67.68
1810.00,67.68
1809.00,67.67
1808.00,67.67
1807.00,67.69
1806.00,67.70
1805.00,67.67
1804.00,67.63
1803.00,67.64
1802.00,67.68
1801.00,67.72
1800.00,67.72
1799.00,67.72
1798.00,67.73
1797.00,67.74
1796.00,67.76
1795.00,67.81
1794.00,67.88
1793.00,67.97
1792.00,68.09
1791.00,68.22
1790.00,68.37
1789.00,68.51
1788.00,68.65
1787.00,68.81
1786.00,68.95
1785.00,69.08
1784.00,69.19
1783.00,69.30
1782.00,69.38
1781.00,69.40
1780.00,69.36
1779.00,69.31
1778.00,69.28
1777.00,69.26
1776.00,69.25
1775.00,69.24
1774.00,69.28
1773.00,69.40
1772.00,69.54
1771.00,69.62
1770.00,69.64
1769.00,69.62
1768.00,69.57
1767.00,69.52
1766.00,69.45
1765.00,69.35
1764.00,69.25
1763.00,69.16
1762.00,69.07
1761.00,68.97
1760.00,68.84
1759.00,68.70
1758.00,68.59
1757.00,68.52
1756.00,68.44
1755.00,68.37
1754.00,68.32
1753.00,68.29
1752.00,68.28
1751.00,68.28
1750.00,68.30
1749.00,68.33
1748.00,68.35
1747.00,68.36
1746.00,68.37
1745.00,68.40
1744.00,68.41
1743.00,68.41
1742.00,68.44
1741.00,68.49
1740.00,68.56
1739.00,68.60
1738.00,68.62
1737.00,68.61
1736.00,68.60
1735.00,68.60
1734.00,68.64
1733.00,68.72
1732.00,68.82
1731.00,68.86
1730.00,68.83
1729.00,68.76
1728.00,68.69
1727.00,68.64
1726.00,68.59
1725.00,68.56
1724.00,68.54
1723.00,68.55
1722.00,68.57
1721.00,68.57
1720.00,68.56
1719.00,68.59
1718.00,68.67
1717.00,68.79
1716.00,68.97
1715.00,69.19
1714.00,69.38
1713.00,69.52
1712.00,69.65
1711.00,69.79
1710.00,69.91
1709.00,69.98
1708.00,70.06
1707.00,70.15
1706.00,70.19
1705.00,70.17
1704.00,70.14
1703.00,70.17
1702.00,70.22
1701.00,70.30
1700.00,70.39
1699.00,70.52
1698.00,70.61
1697.00,70.63
1696.00,70.65
1695.00,70.71
1694.00,70.73
1693.00,70.66
1692.00,70.53
1691.00,70.42
1690.00,70.33
1689.00,70.24
1688.00,70.14
1687.00,70.04
1686.00,69.98
1685.00,69.95
1684.00,69.88
1683.00,69.77
1682.00,69.68
1681.00,69.62
1680.00,69.57
1679.00,69.53
1678.00,69.53
1677.00,69.54
1676.00,69.54
1675.00,69.47
1674.00,69.40
1673.00,69.40
1672.00,69.43
1671.00,69.44
1670.00,69.42
1669.00,69.40
1668.00,69.40
1667.00,69.43
1666.00,69.47
1665.00,69.54
1664.00,69.62
1663.00,69.67
1662.00,69.67
1661.00,69.72
1660.00,69.82
1659.00,69.93
1658.00,70.03
1657.00,70.12
1656.00,70.20
1655.00,70.30
1654.00,70.50
1653.00,70.71
1652.00,70.87
1651.00,70.94
1650.00,70.97
1649.00,71.00
1648.00,71.07
1647.00,71.17
1646.00,71.29
1645.00,71.42
1644.00,71.54
1643.00,71.61
1642.00,71.62
1641.00,71.60
1640.00,71.57
1639.00,71.55
1638.00,71.52
1637.00,71.47
1636.00,71.39
1635.00,71.30
1634.00,71.25
1633.00,71.19
1632.00,71.11
1631.00,71.00
1630.00,70.89
1629.00,70.76
1628.00,70.63
1627.00,70.50
1626.00,70.38
1625.00,70.29
1624.00,70.19
1623.00,70.03
1622.00,69.84
1621.00,69.70
1620.00,69.59
1619.00,69.47
1618.00,69.33
1617.00,69.21
1616.00,69.16
1615.00,69.15
1614.00,69.14
1613.00,69.13
1612.00,69.11
1611.00,69.06
1610.00,69.00
1609.00,68.95
1608.00,68.95
1607.00,68.94
1606.00,68.93
1605.00,68.93
1604.00,68.94
1603.00,68.92
1602.00,68.89
1601.00,68.88
1600.00,68.90
1599.00,68.92
1598.00,68.94
1597.00,68.97
1596.00,68.96
1595.00,68.90
1594.00,68.82
1593.00,68.79
1592.00,68.84
1591.00,68.91
1590.00,68.97
1589.00,69.02
1588.00,69.06
1587.00,69.06
1586.00,69.02
1585.00,68.99
1584.00,69.01
1583.00,69.04
1582.00,69.07
1581.00,69.13
1580.00,69.18
1579.00,69.19
1578.00,69.19
1577.00,69.21
1576.00,69.25
1575.00,69.31
1574.00,69.39
1573.00,69.51
1572.00,69.67
1571.00,69.83
1570.00,69.96
1569.00,70.05
1568.00,70.12
1567.00,70.14
1566.00,70.15
1565.00,70.20
1564.00,70.26
1563.00,70.26
1562.00,70.22
1561.00,70.21
1560.00,70.27
1559.00,70.17
1558.00,69.94
1557.00,69.81
1556.00,69.73
1555.00,69.61
1554.00,69.47
1553.00,69.36
1552.00,69.28
1551.00,69.20
1550.00,69.12
1549.00,69.09
1548.00,69.13
1547.00,69.20
1546.00,69.26
1545.00,69.29
1544.00,69.31
1543.00,69.34
1542.00,69.39
1541.00,69.45
1540.00,69.50
1539.00,69.53
1538.00,69.53
1537.00,69.54
1536.00,69.56
1535.00,69.59
1534.00,69.60
1533.00,69.58
1532.00,69.58
1531.00,69.62
1530.00,69.68
1529.00,69.69
1528.00,69.65
1527.00,69.58
1526.00,69.51
1525.00,69.47
1524.00,69.50
1523.00,69.55
1522.00,69.57
1521.00,69.52
1520.00,69.49
1519.00,69.49
1518.00,69.45
1517.00,69.33
1516.00,69.16
1515.00,69.03
1514.00,68.97
1513.00,68.93
1512.00,68.88
1511.00,68.85
1510.00,68.82
1509.00,68.78
1508.00,68.71
1507.00,68.66
1506.00,68.66
1505.00,68.71
1504.00,68.74
1503.00,68.78
1502.00,68.82
1501.00,68.87
1500.00,68.89
1499.00,68.89
1498.00,68.84
1497.00,68.75
1496.00,68.64
1495.00,68.59
1494.00,68.59
1493.00,68.58
1492.00,68.56
1491.00,68.55
1490.00,68.54
1489.00,68.51
1488.00,68.49
1487.00,68.52
1486.00,68.56
1485.00,68.60
1484.00,68.66
1483.00,68.71
1482.00,68.73
1481.00,68.74
1480.00,68.78
1479.00,68.87
1478.00,68.95
1477.00,68.96
1476.00,68.94
1475.00,68.93
1474.00,68.93
1473.00,68.93
1472.00,68.94
1471.00,69.01
1470.00,69.09
1469.00,69.13
1468.00,69.15
1467.00,69.18
1466.00,69.22
1465.00,69.24
1464.00,69.22
1463.00,69.21
1462.00,69.22
1461.00,69.25
1460.00,69.30
1459.00,69.37
1458.00,69.43
1457.00,69.40
1456.00,69.28
1455.00,69.21
1454.00,69.21
1453.00,69.23
1452.00,69.22
1451.00,69.18
1450.00,69.15
1449.00,69.12
1448.00,69.09
1447.00,69.08
1446.00,69.11
1445.00,69.16
1444.00,69.16
1443.00,69.14
1442.00,69.12
1441.00,69.12
1440.00,69.13
1439.00,69.13
1438.00,69.15
1437.00,69.15
1436.00,69.12
1435.00,69.13
1434.00,69.17
1433.00,69.21
1432.00,69.22
1431.00,69.21
1430.00,69.24
1429.00,69.27
1428.00,69.29
1427.00,69.32
1426.00,69.37
1425.00,69.43
1424.00,69.45
1423.00,69.44
1422.00,69.46
1421.00,69.54
1420.00,69.64
1419.00,69.71
1418.00,69.75
1417.00,69.76
1416.00,69.70
1415.00,69.64
1414.00,69.61
1413.00,69.63
1412.00,69.66
1411.00,69.70
1410.00,69.78
1409.00,69.84
1408.00,69.84
1407.00,69.79
1406.00,69.70
1405.00,69.61
1404.00,69.51
1403.00,69.44
1402.00,69.47
1401.00,69.55
1400.00,69.62
1399.00,69.63
1398.00,69.60
1397.00,69.57
1396.00,69.53
1395.00,69.46
1394.00,69.40
1393.00,69.38
1392.00,69.37
1391.00,69.34
1390.00,69.32
1389.00,69.32
1388.00,69.33
1387.00,69.34
1386.00,69.35
1385.00,69.37
1384.00,69.37
1383.00,69.36
1382.00,69.36
1381.00,69.37
1380.00,69.37
1379.00,69.38
1378.00,69.39
1377.00,69.42
1376.00,69.45
1375.00,69.45
1374.00,69.43
1373.00,69.41
1372.00,69.41
1371.00,69.43
1370.00,69.46
1369.00,69.49
1368.00,69.50
1367.00,69.50
1366.00,69.53
1365.00,69.57
1364.00,69.60
1363.00,69.57
1362.00,69.52
1361.00,69.49
1360.00,69.50
1359.00,69.53
1358.00,69.54
1357.00,69.56
1356.00,69.57
1355.00,69.57
1354.00,69.58
1353.00,69.61
1352.00,69.67
1351.00,69.71
1350.00,69.72
1349.00,69.71
1348.00,69.68
1347.00,69.65
1346.00,69.62
1345.00,69.58
1344.00,69.57
1343.00,69.58
1342.00,69.61
1341.00,69.64
1340.00,69.64
1339.00,69.60
1338.00,69.55
1337.00,69.51
1336.00,69.48
1335.00,69.48
1334.00,69.50
1333.00,69.54
1332.00,69.59
1331.00,69.64
1330.00,69.67
1329.00,69.68
1328.00,69.66
1327.00,69.64
1326.00,69.66
1325.00,69.73
1324.00,69.80
1323.00,69.80
1322.00,69.75
1321.00,69.70
1320.00,69.67
1319.00,69.65
1318.00,69.65
1317.00,69.67
1316.00,69.71
1315.00,69.76
1314.00,69.79
1313.00,69.80
1312.00,69.80
1311.00,69.81
1310.00,69.84
1309.00,69.88
1308.00,69.90
1307.00,69.90
1306.00,69.86
1305.00,69.80
1304.00,69.73
1303.00,69.67
1302.00,69.68
1301.00,69.76
1300.00,69.86
1299.00,69.91
1298.00,69.90
1297.00,69.84
1296.00,69.77
1295.00,69.72
1294.00,69.70
1293.00,69.71
1292.00,69.72
1291.00,69.73
1290.00,69.72
1289.00,69.72
1288.00,69.71
1287.00,69.71
1286.00,69.71
1285.00,69.72
1284.00,69.73
1283.00,69.75
1282.00,69.79
1281.00,69.84
1280.00,69.86
1279.00,69.84
1278.00,69.79
1277.00,69.75
1276.00,69.74
1275.00,69.75
1274.00,69.78
1273.00,69.78
1272.00,69.75
1271.00,69.71
1270.00,69.69
1269.00,69.71
1268.00,69.74
1267.00,69.75
1266.00,69.74
1265.00,69.73
1264.00,69.75
1263.00,69.79
1262.00,69.83
1261.00,69.86
1260.00,69.89
1259.00,69.91
1258.00,69.91
1257.00,69.90
1256.00,69.88
1255.00,69.87
1254.00,69.86
1253.00,69.86
1252.00,69.86
1251.00,69.87
1250.00,69.88
1249.00,69.91
1248.00,69.92
1247.00,69.91
1246.00,69.86
1245.00,69.81
1244.00,69.77
1243.00,69.74
1242.00,69.75
1241.00,69.79
1240.00,69.86
1239.00,69.92
1238.00,69.94
1237.00,69.94
1236.00,69.95
1235.00,69.96
1234.00,69.98
1233.00,69.98
1232.00,69.95
1231.00,69.91
1230.00,69.88
1229.00,69.85
1228.00,69.81
1227.00,69.77
1226.00,69.75
1225.00,69.75
1224.00,69.76
1223.00,69.77
1222.00,69.77
1221.00,69.77
1220.00,69.77
1219.00,69.78
1218.00,69.77
1217.00,69.74
1216.00,69.69
1215.00,69.63
1214.00,69.58
1213.00,69.56
1212.00,69.57
1211.00,69.60
1210.00,69.60
1209.00,69.56
1208.00,69.46
1207.00,69.35
1206.00,69.30
1205.00,69.33
1204.00,69.39
1203.00,69.41
1202.00,69.38
1201.00,69.33
1200.00,69.30
1199.00,69.33
1198.00,69.40
1197.00,69.48
1196.00,69.52
1195.00,69.50
1194.00,69.47
1193.00,69.43
1192.00,69.37
1191.00,69.30
1190.00,69.24
1189.00,69.21
1188.00,69.19
1187.00,69.18
1186.00,69.20
1185.00,69.28
1184.00,69.40
1183.00,69.49
1182.00,69.52
1181.00,69.53
1180.00,69.54
1179.00,69.56
1178.00,69.58
1177.00,69.58
1176.00,69.57
1175.00,69.56
1174.00,69.58
1173.00,69.61
1172.00,69.61
1171.00,69.56
1170.00,69.46
1169.00,69.33
1168.00,69.25
1167.00,69.25
1166.00,69.34
1165.00,69.47
1164.00,69.59
1163.00,69.66
1162.00,69.67
1161.00,69.62
1160.00,69.54
1159.00,69.47
1158.00,69.46
1157.00,69.48
1156.00,69.50
1155.00,69.51
1154.00,69.52
1153.00,69.54
1152.00,69.55
1151.00,69.57
1150.00,69.61
1149.00,69.65
1148.00,69.68
1147.00,69.66
1146.00,69.60
1145.00,69.55
1144.00,69.55
1143.00,69.63
1142.00,69.74
1141.00,69.86
1140.00,69.96
1139.00,70.07
1138.00,70.20
1137.00,70.33
1136.00,70.45
1135.00,70.54
1134.00,70.60
1133.00,70.63
1132.00,70.64
1131.00,70.63
1130.00,70.61
1129.00,70.59
1128.00,70.54
1127.00,70.50
1126.00,70.44
1125.00,70.37
1124.00,70.26
1123.00,70.14
1122.00,70.03
1121.00,69.92
1120.00,69.78
1119.00,69.63
1118.00,69.51
1117.00,69.44
1116.00,69.41
1115.00,69.39
1114.00,69.38
1113.00,69.36
1112.00,69.33
1111.00,69.31
1110.00,69.33
1109.00,69.36
1108.00,69.36
1107.00,69.29
1106.00,69.23
1105.00,69.22
1104.00,69.29
1103.00,69.36
1102.00,69.38
1101.00,69.34
1100.00,69.27
1099.00,69.20
1098.00,69.16
1097.00,69.16
1096.00,69.16
1095.00,69.13
1094.00,69.08
1093.00,69.04
1092.00,69.03
1091.00,69.09
1090.00,69.17
1089.00,69.23
1088.00,69.25
1087.00,69.25
1086.00,69.27
1085.00,69.29
1084.00,69.24
1083.00,69.08
1082.00,68.89
1081.00,68.78
1080.00,68.79
1079.00,68.87
1078.00,68.91
1077.00,68.90
1076.00,68.88
1075.00,68.92
1074.00,69.00
1073.00,69.07
1072.00,69.09
1071.00,69.09
1070.00,69.08
1069.00,69.06
1068.00,69.02
1067.00,68.95
1066.00,68.90
1065.00,68.90
1064.00,68.97
1063.00,69.07
1062.00,69.15
1061.00,69.20
1060.00,69.22
1059.00,69.22
1058.00,69.24
1057.00,69.28
1056.00,69.35
1055.00,69.42
1054.00,69.46
1053.00,69.43
1052.00,69.36
1051.00,69.27
1050.00,69.18
1049.00,69.14
1048.00,69.15
1047.00,69.22
1046.00,69.30
1045.00,69.32
1044.00,69.31
1043.00,69.31
1042.00,69.35
1041.00,69.40
1040.00,69.41
1039.00,69.41
1038.00,69.43
1037.00,69.45
1036.00,69.44
1035.00,69.40
1034.00,69.41
1033.00,69.47
1032.00,69.53
1031.00,69.52
1030.00,69.44
1029.00,69.33
1028.00,69.23
1027.00,69.17
1026.00,69.15
1025.00,69.16
1024.00,69.17
1023.00,69.18
1022.00,69.21
1021.00,69.24
1020.00,69.28
1019.00,69.30
1018.00,69.29
1017.00,69.25
1016.00,69.19
1015.00,69.16
1014.00,69.20
1013.00,69.26
1012.00,69.28
1011.00,69.22
1010.00,69.14
1009.00,69.10
1008.00,69.12
1007.00,69.18
1006.00,69.26
1005.00,69.31
1004.00,69.34
1003.00,69.34
1002.00,69.34
1001.00,69.31
1000.00,69.26
999.00,69.23
998.00,69.27
997.00,69.39
996.00,69.51
995.00,69.57
994.00,69.56
993.00,69.51
992.00,69.45
991.00,69.40
990.00,69.40
989.00,69.42
988.00,69.44
987.00,69.41
986.00,69.38
985.00,69.37
984.00,69.39
983.00,69.41
982.00,69.41
981.00,69.39
980.00,69.36
979.00,69.33
978.00,69.30
977.00,69.27
976.00,69.23
975.00,69.19
974.00,69.18
973.00,69.21
972.00,69.24
971.00,69.30
970.00,69.38
969.00,69.48
968.00,69.56
967.00,69.61
966.00,69.64
965.00,69.65
964.00,69.61
963.00,69.52
962.00,69.44
961.00,69.39
960.00,69.40
959.00,69.47
958.00,69.61
957.00,69.76
956.00,69.84
955.00,69.79
954.00,69.69
953.00,69.64
952.00,69.68
951.00,69.79
950.00,69.87
949.00,69.89
948.00,69.84
947.00,69.78
946.00,69.76
945.00,69.80
944.00,69.84
943.00,69.85
942.00,69.84
941.00,69.82
940.00,69.79
939.00,69.73
938.00,69.71
937.00,69.80
936.00,69.96
935.00,70.04
934.00,70.00
933.00,69.91
932.00,69.91
931.00,70.01
930.00,70.15
929.00,70.24
928.00,70.26
927.00,70.21
926.00,70.14
925.00,70.05
924.00,69.97
923.00,69.93
922.00,69.95
921.00,69.99
920.00,70.03
919.00,70.07
918.00,70.10
917.00,70.08
916.00,70.01
915.00,69.89
914.00,69.81
913.00,69.80
912.00,69.86
911.00,69.93
910.00,69.98
909.00,69.99
908.00,69.96
907.00,69.89
906.00,69.84
905.00,69.84
904.00,69.88
903.00,69.93
902.00,69.97
901.00,69.99
900.00,69.99
899.00,69.97
898.00,69.98
897.00,70.03
896.00,70.09
895.00,70.11
894.00,70.08
893.00,70.03
892.00,70.01
891.00,70.02
890.00,70.08
889.00,70.12
888.00,70.11
887.00,70.05
886.00,70.00
885.00,70.01
884.00,70.06
883.00,70.10
882.00,70.10
881.00,70.13
880.00,70.22
879.00,70.34
878.00,70.45
877.00,70.48
876.00,70.42
875.00,70.34
874.00,70.31
873.00,70.35
872.00,70.41
871.00,70.40
870.00,70.35
869.00,70.30
868.00,70.24
867.00,70.16
866.00,70.08
865.00,70.07
864.00,70.13
863.00,70.17
862.00,70.17
861.00,70.13
860.00,70.08
859.00,70.01
858.00,69.91
857.00,69.82
856.00,69.78
855.00,69.74
854.00,69.66
853.00,69.52
852.00,69.38
851.00,69.27
850.00,69.22
849.00,69.17
848.00,69.06
847.00,68.88
846.00,68.70
845.00,68.64
844.00,68.71
843.00,68.83
842.00,68.92
841.00,69.01
840.00,69.10
839.00,69.19
838.00,69.24
837.00,69.28
836.00,69.36
835.00,69.45
834.00,69.51
833.00,69.54
832.00,69.61
831.00,69.76
830.00,69.95
829.00,70.12
828.00,70.23
827.00,70.27
826.00,70.25
825.00,70.20
824.00,70.14
823.00,70.05
822.00,69.94
821.00,69.86
820.00,69.87
819.00,69.93
818.00,69.94
817.00,69.88
816.00,69.83
815.00,69.82
814.00,69.81
813.00,69.73
812.00,69.58
811.00,69.46
810.00,69.39
809.00,69.34
808.00,69.30
807.00,69.33
806.00,69.46
805.00,69.62
804.00,69.73
803.00,69.78
802.00,69.73
801.00,69.58
800.00,69.37
799.00,69.16
798.00,69.04
797.00,69.01
796.00,69.03
795.00,69.06
794.00,69.06
793.00,69.04
792.00,69.01
791.00,68.99
790.00,68.96
789.00,68.90
788.00,68.81
787.00,68.77
786.00,68.85
785.00,69.05
784.00,69.26
783.00,69.34
782.00,69.30
781.00,69.22
780.00,69.21
779.00,69.29
778.00,69.38
777.00,69.37
776.00,69.25
775.00,69.06
774.00,68.86
773.00,68.74
772.00,68.74
771.00,68.84
770.00,68.98
769.00,69.07
768.00,69.07
767.00,69.00
766.00,68.94
765.00,68.94
764.00,69.03
763.00,69.17
762.00,69.26
761.00,69.26
760.00,69.20
759.00,69.16
758.00,69.17
757.00,69.20
756.00,69.23
755.00,69.27
754.00,69.33
753.00,69.43
752.00,69.58
751.00,69.73
750.00,69.83
749.00,69.82
748.00,69.71
747.00,69.58
746.00,69.51
745.00,69.51
744.00,69.53
743.00,69.52
742.00,69.53
741.00,69.58
740.00,69.67
739.00,69.77
738.00,69.84
737.00,69.85
736.00,69.83
735.00,69.82
734.00,69.84
733.00,69.88
732.00,69.90
731.00,69.86
730.00,69.78
729.00,69.71
728.00,69.69
727.00,69.76
726.00,69.89
725.00,70.01
724.00,70.03
723.00,69.89
722.00,69.68
721.00,69.50
720.00,69.46
719.00,69.51
718.00,69.55
717.00,69.48
716.00,69.36
715.00,69.25
714.00,69.17
713.00,69.07
712.00,68.90
711.00,68.68
710.00,68.48
709.00,68.35
708.00,68.32
707.00,68.36
706.00,68.43
705.00,68.53
704.00,68.71
703.00,69.02
702.00,69.45
701.00,69.92
700.00,70.38
699.00,70.80
698.00,71.09
697.00,71.18
696.00,71.04
695.00,70.78
694.00,70.61
693.00,70.59
692.00,70.66
691.00,70.67
690.00,70.56
689.00,70.37
688.00,70.22
687.00,70.18
686.00,70.18
685.00,70.10
684.00,69.91
683.00,69.73
682.00,69.64
681.00,69.70
680.00,69.86
679.00,70.05
678.00,70.16
677.00,70.11
676.00,69.91
675.00,69.64
674.00,69.43
673.00,69.39
672.00,69.55
671.00,69.75
670.00,69.78
669.00,69.61
668.00,69.46
667.00,69.71
666.00,69.97
665.00,69.91
664.00,69.55
663.00,69.18
662.00,69.06
661.00,69.21
660.00,69.40
659.00,69.53
658.00,69.62
657.00,69.69
656.00,69.70
655.00,69.65
654.00,69.62
653.00,69.70
652.00,69.83
651.00,69.89
650.00,69.88
